Target speed left front (rev/min): 6.5
Target speed left back (rev/min): 6.5
Target speed right front (rev/min): 5.5
Target speed right back (rev/min): 6
Target pos left (rev): 2
Target pos right (rev): 2
Data format: <time in ms since beginning>,<position ticks FL>,<position ticks FR>,<position ticks RL>,<position ticks RR>,<current mA FL>,<current mA FR>,<current mA RL>,<current mA RR>
192,0,-14,0,-22,0.00856323,0.0148926,0.0145203,-0.0152649
384,145,-156,143,-168,0.0111694,0.0137756,0.0167542,0.00930786
591,419,-447,417,-464,0.00968018,0.0148926,-0.00819092,-0.0100525
782,696,-717,690,-750,-0.0026062,0.0167542,0.0148926,-0.00148926
972,909,-918,893,-963,0.00819092,0.0156372,0.0156372,0.00930786
1164,1124,-1140,1099,-1184,0.00446777,0.013031,0.0160095,0.00819092
1360,1372,-1385,1344,-1438,0.00968018,0.0171265,0.0148926,-0.00297852
1550,1631,-1631,1605,-1694,0.00930786,0.00819092,0.00186157,0.00707397
1740,1863,-1856,1835,-1923,0.00893555,0.0163818,0.0160095,0.00856323
1931,2086,-2085,2055,-2159,0.00968018,0.0115417,0.00893555,0.000372314
2123,2322,-2321,2293,-2402,0.00446777,0.00632935,0.0026062,0.00893555
2315,2571,-2556,2538,-2643,0,0.0160095,0.0148926,-0.00297852
2504,2811,-2790,2774,-2883,0.0171265,0.0134033,0.00409546,0.00819092
2694,3041,-3019,3009,-3118,0.0100525,0.0078186,0.0152649,0.00186157
2886,3271,-3251,3242,-3356,0.00372314,0.013031,0.00335083,0.0137756
3075,3514,-3487,3481,-3598,0.00819092,0.0141479,0.00223389,0.0100525
3264,3756,-3718,3717,-3835,0.00409546,0.0111694,0.00446777,0.000744629
3454,3989,-3947,3950,-4071,0.00186157,0.0111694,0.00186157,-0.00632935
3644,4220,-4179,4185,-4307,0.00484009,0.0171265,0.0148926,0.00819092
3835,4457,-4414,4421,-4546,0.00893555,0.00670166,0.00819092,0.00819092
4024,4698,-4647,4659,-4787,0.00968018,0.0111694,0.00372314,0.0100525
4215,4935,-4877,4898,-5023,-0.000372314,0.018988,0,0.00819092
4411,5168,-5111,5131,-5259,0.00893555,0.0115417,0.0152649,0.0104248
4601,5411,-5352,5371,-5507,0.0104248,0.0160095,0.0160095,-0.00186157
4793,5646,-5582,5606,-5745,0.00484009,0.0134033,0.0148926,0.00893555
4988,5886,-5816,5846,-5982,0.00372314,0.0100525,0.00409546,0.0078186
5178,6131,-6056,6088,-6228,-0.00148926,0.00930786,0.00372314,-0.00484009
5367,6363,-6287,6324,-6465,0.000744629,0.0152649,0.0163818,0.00930786
5558,6597,-6521,6558,-6705,0.0171265,0.0152649,0.0137756,-0.00558472
5751,6834,-6753,6791,-6942,0.00930786,0.00819092,0.00148926,-0.00335083
5942,7079,-6989,7031,-7187,0.0052124,0.00707397,0.00558472,-0.00707397
6131,7317,-7222,7266,-7424,0.00632935,0.0141479,0.0026062,0.00968018
6322,7549,-7454,7499,-7663,0.00484009,0.0145203,0.0148926,-0.00186157
6512,7781,-7686,7736,-7901,0.00930786,0.00670166,0.00744629,-0.000744629
6702,8019,-7918,7972,-8139,0.00186157,0.0134033,-0.00111694,-0.00409546
6893,8257,-8151,8205,-8376,0,0.0115417,0.0152649,-0.000744629
7086,8499,-8387,8443,-8618,0.00632935,0.0160095,0.0141479,0.0107971
7277,8737,-8620,8684,-8860,0.000372314,0.0163818,0,0.00893555
7468,8970,-8854,8917,-9095,0.00670166,0.0107971,0.00372314,0.00111694
7660,9210,-9090,9157,-9339,0.00893555,0.0156372,0.00148926,-0.00558472
7850,9445,-9322,9390,-9576,0.0141479,0.00856323,0.00297852,0.00968018
8039,9684,-9551,9628,-9815,0.00893555,0.0182434,0.00148926,0.0100525
8228,9920,-9784,9863,-10052,0.00484009,0.00968018,0.0167542,-0.00148926
8418,10152,-10016,10094,-10290,0.00186157,0.0137756,0.00186157,-0.00558472
8609,10387,-10249,10335,-10529,0.00558472,0.00893555,0.00335083,0.000372314
8799,10626,-10481,10571,-10766,0.00670166,0.0182434,0.00372314,-0.00744629
8988,10861,-10712,10804,-11006,0.00893555,0.0078186,0.0160095,-0.0026062
9179,11096,-10944,11038,-11243,0.00446777,0.0115417,0.00670166,0.013031
9370,11330,-11177,11277,-11483,0.00446777,0.00930786,0.00632935,-0.00297852
9561,11566,-11410,11512,-11721,0.00744629,0.0163818,0.00111694,0
9750,11805,-11643,11749,-11962,0.00446777,0.0107971,0.000372314,-0.00372314
9940,12041,-11873,11984,-12201,0.00744629,0.0156372,-0.00409546,-0.000372314
10130,12276,-12105,12221,-12435,0.00297852,0.0104248,-0.00148926,0.00111694
10321,12512,-12339,12458,-12674,0.00409546,0.0163818,0.0145203,0.00819092
10510,12746,-12570,12694,-12913,0.00484009,0.0145203,0.00111694,-0.00186157
10700,12981,-12803,12932,-13148,0.00186157,0.00856323,0.000372314,0.00484009
10890,13218,-13033,13170,-13385,0.00335083,0.00893555,0.00223389,-0.000372314
11080,13454,-13268,13408,-13625,0.0104248,0.0111694,0.0148926,-0.00446777
11271,13692,-13502,13646,-13867,0.00632935,0.0122864,0.00744629,-0.0052124
11462,13928,-13732,13879,-14101,0.00930786,0.0152649,0.00372314,0.00372314
11654,14163,-13968,14122,-14341,0.00930786,0.00670166,-0.00111694,0.00893555
11843,14400,-14200,14360,-14581,0.0100525,0.0141479,0.00558472,-0.00335083
12033,14638,-14431,14596,-14818,0.00446777,0.00409546,0.0145203,0.0100525
12223,14875,-14663,14832,-15053,0.00968018,0.0145203,0.000744629,0.00744629
12412,15106,-14894,15067,-15292,0.00968018,0.0141479,0.000744629,-0.0052124
12609,15342,-15128,15304,-15533,0.0141479,0.0122864,0.0134033,0.00819092
12801,15584,-15366,15548,-15775,0.00856323,0.0115417,0.0156372,0.00893555
12992,15826,-15599,15785,-16013,0.0107971,0.0111694,0.0167542,0.00819092
13181,16064,-15834,16023,-16252,0.00446777,0.0152649,0.00223389,-0.00632935
13371,16295,-16064,16258,-16491,0.0115417,0.00856323,0.00446777,-0.00223389
13563,16529,-16297,16496,-16728,0.00707397,0.00856323,0.00111694,-0.0078186
13752,16768,-16529,16733,-16964,0.0174988,0.0160095,0.0178711,-0.00484009
13943,17005,-16760,16970,-17201,0.00223389,0.013031,0.00484009,-0.0026062
14132,17242,-16994,17212,-17443,0.00893555,0.0119141,0.00148926,0.00744629
14322,17475,-17227,17447,-17675,0.00297852,0.0078186,0.0148926,-0.000372314
14514,17708,-17457,17681,-17910,0.00186157,0.0163818,0.00223389,-0.00632935
14707,17945,-17693,17921,-18153,0.0100525,0.0163818,0.0156372,-0.00186157
14899,18185,-17928,18162,-18391,0.0122864,0.0160095,0.00335083,-0.00930786
15088,18426,-18164,18399,-18633,0.0104248,0.0104248,0.0160095,0.00819092
15279,18662,-18395,18635,-18869,0.00372314,0.00670166,0.00446777,0.00893555
15470,18897,-18629,18876,-19109,0.0078186,0.00893555,0.00744629,-0.00111694
15660,19128,-18861,19110,-19348,0.00335083,0.013031,0.0148926,0.00968018
15851,19367,-19096,19352,-19588,0.0111694,0.0197327,0.0026062,-0.000744629
16041,19604,-19327,19589,-19825,0.00595703,0.00297852,-0.000372314,0.0111694
16231,19843,-19558,19826,-19941,0.0126587,0.00968018,0.0145203,0.00968018
16421,19933,-19790,19901,-19925,0.00856323,0.0148926,0.0148926,0.0078186
16611,19933,-19890,19893,-19923,0.00930786,0.0167542,0.0148926,0.00893555
16801,19933,-19888,19893,-19923,0.0119141,0.0156372,0.0160095,0.00744629
16991,19933,-19888,19893,-19923,0.0100525,0.0182434,0.0141479,0.00856323
17180,19933,-19888,19893,-19923,0.00930786,0.0167542,0.0148926,0.00893555
17369,19933,-19888,19893,-19923,0.00968018,0.013031,0.0163818,0.00856323
17514,19933,-19888,19893,-19923,0.0115417,0.0156372,0.013031,0.00930786
