Target speed left front (rev/min): 6.5
Target speed left back (rev/min): 6.5
Target speed right front (rev/min): 5.5
Target speed right back (rev/min): 6
Target pos left (rev): 2
Target pos right (rev): 2
Data format: <time in ms since beginning>,<position ticks FL>,<position ticks FR>,<position ticks RL>,<position ticks RR>,<current mA FL>,<current mA FR>,<current mA RL>,<current mA RR>
192,3,-33,72,-37,-0.0152649,-0.013031,0.0160095,-0.0167542
389,148,-164,194,-175,0.0148926,0.0186157,0.0152649,0.00893555
582,412,-449,446,-457,0.00856323,0.0227112,0.0137756,-0.00409546
775,696,-718,722,-750,-0.00819092,0.0174988,0.0141479,0.00148926
967,919,-930,949,-968,0.00856323,0.0167542,0.0163818,0.00893555
1159,1131,-1150,1163,-1188,0.0107971,0.0145203,0.0148926,0.00856323
1350,1376,-1397,1394,-1440,0.00186157,0.00856323,0.0145203,0.00968018
1544,1630,-1633,1640,-1690,0.0104248,0.00856323,0.0141479,0.00446777
1735,1866,-1865,1883,-1925,0.00856323,0.0215942,0.0148926,0.00930786
1929,2091,-2098,2110,-2159,0.00223389,0.00968018,0.00707397,-0.00632935
2123,2329,-2336,2346,-2406,0.00707397,0.0141479,0.0160095,-0.00223389
2313,2580,-2576,2592,-2650,0.0119141,0.00819092,0.00595703,0.0100525
2502,2819,-2804,2829,-2888,0.0152649,0.0160095,0.00297852,0.0078186
2691,3048,-3035,3062,-3124,0.0052124,0.00670166,0.0163818,0.0104248
2883,3281,-3270,3297,-3367,0.00335083,0.00707397,0.0148926,-0.00446777
3079,3518,-3502,3535,-3607,0.0100525,0.0152649,0.0148926,-0.00409546
3271,3766,-3745,3782,-3850,0.00148926,0.00484009,0.0148926,0.00297852
3466,4005,-3977,4020,-4091,0.00819092,0.0134033,0,0.00893555
3676,4243,-4213,4261,-4335,0.00856323,0.00744629,0.0026062,-0.000372314
3871,4506,-4473,4525,-4601,0.00670166,0.0100525,0.00297852,-0.0026062
4062,4745,-4709,4766,-4842,0.00968018,0.00819092,0.0167542,-0.00186157
4252,4984,-4940,5005,-5083,0.000372314,0.0145203,0.00297852,-0.000744629
4441,5225,-5171,5239,-5321,0.00893555,0.0134033,0.0141479,-0.000372314
4632,5457,-5404,5473,-5559,0.00595703,0.0148926,0.000372314,0.00632935
4824,5691,-5636,5712,-5801,0.00335083,0.0145203,0.00446777,0.0078186
5014,5929,-5869,5954,-6042,0.00670166,0.0152649,0.000744629,-0.00707397
5206,6168,-6101,6189,-6277,0.00558472,0.0160095,0.00372314,0.00335083
5398,6411,-6338,6427,-6519,0.000372314,0.0115417,0.000744629,-0.00223389
5587,6644,-6570,6665,-6762,0.00930786,0.00670166,0.000744629,0.00930786
5779,6877,-6801,6905,-7000,0.00223389,0.0227112,0.0122864,0.0078186
5970,7114,-7034,7137,-7234,0.00930786,0.0100525,0.0141479,0
6161,7356,-7270,7379,-7475,0.00446777,0.013031,0.00856323,-0.00335083
6353,7590,-7501,7616,-7714,0.00968018,0.0134033,0.00558472,-0.00186157
6543,7825,-7734,7853,-7956,0.00670166,0.0148926,0.0145203,-0.00484009
6737,8062,-7968,8092,-8196,0.00930786,0.0111694,0.00297852,0.000372314
6927,8304,-8204,8330,-8435,0.0078186,0.00968018,0.00148926,0.00297852
7117,8542,-8437,8568,-8674,0.00893555,0.00930786,0.00335083,-0.00409546
7308,8777,-8669,8804,-8914,0.0111694,0.0104248,0.00595703,0.00819092
7500,9008,-8904,9040,-9153,0.00670166,0.00968018,0.0145203,-0.00632935
7695,9249,-9142,9284,-9396,0.0104248,0.00595703,0.00148926,0.00856323
7884,9491,-9375,9520,-9635,-0.0026062,0.0100525,0.00670166,-0.00595703
8073,9727,-9607,9757,-9875,0.0122864,0.00856323,0.000744629,0.00819092
8265,9964,-9841,9996,-10114,0.0100525,0.00632935,-0.000372314,-0.00446777
8455,10195,-10070,10229,-10351,0.00297852,0.00819092,0.013031,0.0078186
8644,10433,-10303,10467,-10589,0.00297852,0.0107971,0.0137756,-0.0026062
8834,10672,-10534,10704,-10827,0.00595703,0.00819092,0.0145203,-0.00297852
9028,10914,-10770,10943,-11068,0.00223389,0.013031,0.00446777,-0.000372314
9217,11148,-11003,11178,-11308,0.0026062,0.00893555,0.0141479,-0.00372314
9406,11380,-11234,11416,-11545,0.00558472,0.0119141,0.0078186,0.000744629
9596,11619,-11465,11653,-11782,0.0078186,0.0160095,0.00707397,-0.00409546
9786,11854,-11696,11884,-12017,0.00893555,0.013031,0.00409546,-0.00446777
9975,12087,-11929,12122,-12257,0.00558472,0.0111694,0.00484009,-0.00186157
10165,12320,-12163,12361,-12493,0.00856323,0.0100525,-0.00148926,-0.00372314
10366,12564,-12399,12604,-12736,0.0078186,0.013031,0.0174988,-0.00111694
10555,12808,-12638,12848,-12982,0.0026062,0.0104248,0.00484009,0.00707397
10748,13050,-12875,13085,-13224,0.0107971,0.0167542,0.00148926,-0.00223389
10937,13283,-13106,13323,-13464,0.0078186,0.0107971,0.00148926,-0.00409546
11126,13515,-13338,13560,-13699,0.00632935,0.00893555,0.00148926,0.00856323
11316,13751,-13569,13795,-13935,0.0104248,0.00856323,0.00223389,-0.00335083
11506,13986,-13800,14031,-14174,0.00819092,0.0122864,0.00186157,0.0026062
11697,14223,-14034,14266,-14413,0.00893555,0.00968018,0.0141479,0.00409546
11887,14457,-14269,14506,-14651,0.00186157,0.0119141,0.0137756,0.00297852
12078,14692,-14499,14741,-14889,0.00484009,0.0119141,0.00893555,-0.00111694
12272,14933,-14733,14979,-15129,0.0026062,0.0178711,0.0145203,0.00148926
12468,15174,-14969,15224,-15371,0.0174988,0.0167542,0.00186157,-0.00297852
12660,15415,-15209,15472,-15617,0.0026062,0.0145203,0.0145203,0.00930786
12849,15652,-15445,15712,-15859,0.00186157,0.0152649,0.000372314,0.00148926
13040,15890,-15678,15947,-16098,0.00632935,0.0126587,0.00297852,0.00893555
13229,16127,-15911,16188,-16335,0.00372314,0.0078186,0.0134033,0.00819092
13421,16360,-16142,16428,-16569,0.00111694,0.00930786,0.0145203,-0.000372314
13616,16597,-16376,16666,-16810,0.0178711,0.0160095,0.0152649,-0.00223389
13808,16839,-16614,16909,-17054,0.00595703,0.0145203,0.00335083,0.00856323
14000,17079,-16849,17148,-17294,0.0115417,0.00744629,0.00148926,-0.00484009
14190,17318,-17084,17387,-17533,0.00856323,0.0156372,0.00111694,0.00856323
14380,17554,-17315,17624,-17771,0.00819092,0.00968018,0.00744629,0
14583,17787,-17549,17861,-18009,0.0107971,0.0111694,0.0152649,-0.0052124
14774,18039,-17795,18112,-18263,0.00968018,0.0152649,0.00148926,0.00595703
14965,18282,-18032,18349,-18504,0.0052124,0.0107971,0,-0.00111694
15154,18519,-18264,18587,-18742,0.0104248,0.0111694,0.000372314,0.00632935
15344,18750,-18497,18826,-18979,0.0111694,0.0160095,0.0104248,-0.00409546
15538,18985,-18729,19064,-19219,0.0115417,0.0152649,0.0152649,0.00595703
15727,19224,-18965,19303,-19460,0.00893555,0.00893555,0.00297852,0.00968018
15916,19462,-19196,19542,-19699,0.00335083,0.0148926,0.00446777,0.00930786
16111,19703,-19432,19779,-19886,0.0078186,0.018988,0.0100525,0.0100525
16305,19934,-19666,19879,-19865,0.00968018,0.00893555,0.0119141,0.00148926
16500,19941,-19892,19916,-19946,0.00707397,0.0145203,0.0119141,0.00930786
16689,19941,-19896,19953,-19938,0.0052124,0.0148926,0.0145203,0.0100525
16880,19941,-19896,19949,-19938,0.00856323,0.0167542,0.0137756,0.00670166
17071,19941,-19896,19949,-19938,0.00558472,0.0145203,0.0148926,0.00856323
17261,19941,-19896,19949,-19938,0.00819092,0.0174988,0.0141479,0.0078186
17453,19941,-19896,19949,-19938,0.00707397,0.0148926,0.0137756,0.00819092
17606,19941,-19896,19949,-19938,0.00893555,0.0141479,0.0145203,0.00632935
