Target speed left front (rev/min): 6.5
Target speed left back (rev/min): 6.5
Target speed right front (rev/min): 5.5
Target speed right back (rev/min): 6
Target pos left (rev): 2
Target pos right (rev): 2
Data format: <time in ms since beginning>,<position ticks FL>,<position ticks FR>,<position ticks RL>,<position ticks RR>,<current mA FL>,<current mA FR>,<current mA RL>,<current mA RR>
192,0,-71,36,-114,-0.0227112,0.0197327,-0.013031,0.00595703
384,145,-195,176,-234,0.018988,0.0186157,0.0078186,0.00595703
576,413,-465,444,-486,-0.00148926,0.0141479,-0.0134033,0.000744629
769,679,-733,725,-767,-0.00409546,0.0111694,-0.00744629,-0.00819092
962,888,-958,955,-990,0.00335083,0.0167542,0.00930786,0.00595703
1158,1114,-1186,1177,-1224,0.00409546,0.0227112,0.00186157,0.00223389
1352,1370,-1437,1434,-1476,0.00186157,0.0141479,-0.00484009,0.00484009
1544,1622,-1679,1687,-1724,0.00893555,0.0208496,-0.00335083,0.0115417
1737,1858,-1917,1932,-1959,0.00186157,0.0219666,-0.00335083,0
1931,2094,-2158,2173,-2205,0.0100525,0.0148926,-0.00484009,-0.00111694
2129,2333,-2398,2417,-2448,0.00707397,0.018988,0.000744629,0.00223389
2321,2585,-2645,2671,-2702,-0.00111694,0.0197327,0.00186157,-0.00186157
2515,2829,-2885,2913,-2941,0.0052124,0.0193604,-0.00409546,0.00595703
2705,3066,-3123,3162,-3183,-0.0052124,0.018988,0.00632935,0.00744629
2900,3301,-3358,3402,-3422,0.00446777,0.0137756,0.0078186,0.000744629
3092,3544,-3603,3651,-3671,0.0026062,0.0134033,-0.0026062,0.00632935
3281,3780,-3838,3889,-3912,0.0078186,0.0137756,-0.00111694,-0.000744629
3471,4020,-4078,4133,-4145,0.00186157,0.0141479,0.000744629,0.00148926
3663,4258,-4310,4371,-4385,0.00968018,0.0160095,0.00744629,-0.00148926
3852,4496,-4548,4618,-4625,0.0160095,0.0163818,0.00744629,0.0052124
4044,4729,-4781,4857,-4864,0.00595703,0.0152649,-0.00148926,-0.000744629
4236,4968,-5021,5107,-5102,0.00893555,0.020105,0.0052124,0.00335083
4425,5209,-5259,5350,-5346,0.0100525,0.0119141,0.000744629,0.00930786
4615,5443,-5493,5591,-5584,0.0104248,0.0078186,0.00930786,0.00707397
4804,5681,-5731,5831,-5822,0.00186157,0.0126587,-0.00297852,-0.00223389
4996,5919,-5964,6070,-6059,0.00111694,0.0174988,0.00670166,0.00484009
5185,6157,-6204,6317,-6298,0.0078186,0.0122864,-0.00595703,-0.00111694
5383,6400,-6450,6570,-6548,0.0026062,0.0115417,-0.00558472,-0.000744629
5572,6635,-6684,6810,-6783,0.00446777,0.0182434,-0.00484009,0.00632935
5761,6874,-6919,7049,-7025,0.00632935,0.0160095,0.0078186,0.00446777
5951,7111,-7155,7290,-7262,0.000744629,0.018988,0.0078186,0.00335083
6141,7346,-7389,7531,-7501,0.00632935,0.00819092,0.000372314,-0.000744629
6332,7581,-7624,7773,-7737,0.000744629,0.0156372,-0.00148926,-0.000744629
6522,7817,-7862,8011,-7977,0.00148926,0.0197327,0.00670166,0.00595703
6710,8053,-8099,8255,-8217,0.00372314,0.0126587,0.00744629,-0.000744629
6899,8289,-8333,8497,-8452,0.00223389,0.0100525,-0.00148926,-0.000372314
7089,8527,-8567,8739,-8691,0.0026062,0.0122864,0.000372314,0.00297852
7277,8764,-8802,8976,-8926,0.000372314,0.0167542,-0.00186157,-0.00186157
7466,8996,-9036,9215,-9166,0.00744629,0.00968018,0.00148926,0
7656,9231,-9271,9462,-9404,0.00186157,0.018988,-0.00856323,0.0122864
7846,9469,-9506,9701,-9641,0.00893555,0.0212219,0.0078186,0.00484009
8041,9708,-9742,9942,-9881,0.00856323,0.018988,-0.00484009,0.00632935
8230,9950,-9984,10186,-10128,0.0052124,0.0152649,-0.00148926,0.00186157
8419,10182,-10218,10432,-10364,-0.000744629,0.0141479,-0.000372314,0.00558472
8608,10418,-10454,10674,-10598,0.0026062,0.0148926,-0.0026062,0.00409546
8797,10655,-10688,10916,-10837,0.00372314,0.0174988,-0.00111694,0.00484009
8987,10890,-10923,11155,-11072,0.0107971,0.0111694,-0.0026062,-0.00111694
9177,11126,-11158,11397,-11310,0.0107971,0.00968018,-0.00186157,0.000372314
9365,11361,-11393,11641,-11548,0.00707397,0.0182434,-0.00335083,0.00558472
9558,11595,-11627,11881,-11786,0.00856323,0.0182434,-0.0052124,-0.00297852
9747,11831,-11866,12125,-12028,0.0160095,0.0126587,0.00148926,0.000372314
9935,12069,-12102,12367,-12266,0.0052124,0.013031,-0.00223389,-0.000372314
10125,12305,-12334,12611,-12503,0.00372314,0.0167542,-0.00335083,0.00670166
10314,12538,-12568,12852,-12739,0.0052124,0.0107971,-0.00558472,-0.00148926
10503,12771,-12805,13091,-12977,0.00632935,0.0141479,0.00111694,-0.00335083
10692,13009,-13038,13333,-13216,0.00819092,0.0197327,0.00632935,0.00111694
10881,13247,-13271,13575,-13454,-0.000744629,0.0141479,-0.000372314,-0.0026062
11070,13480,-13510,13817,-13687,0.00968018,0.0119141,0.0078186,-0.00148926
11259,13714,-13743,14055,-13926,0.00707397,0.0212219,0.00893555,0.00670166
11449,13948,-13977,14295,-14166,0.00632935,0.0152649,0.00744629,0.00632935
11638,14188,-14213,14536,-14401,0.00968018,0.0234558,0.00893555,-0.00297852
11827,14425,-14447,14780,-14639,0.0052124,0.0107971,0.00744629,-0.00372314
12016,14656,-14682,15020,-14876,0.00335083,0.0122864,-0.00632935,0.00558472
12206,14890,-14915,15259,-15117,0.0134033,0.0134033,0.00819092,0.00670166
12397,15127,-15152,15501,-15353,0.000372314,0.0148926,-0.00223389,-0.00558472
12586,15369,-15390,15744,-15594,0.00930786,0.0171265,0.00968018,0.00670166
12776,15605,-15623,15985,-15828,0.00409546,0.0174988,-0.00632935,-0.00335083
12965,15840,-15859,16226,-16068,0.00372314,0.0178711,0.00670166,-0.00670166
13154,16073,-16094,16467,-16305,0.00930786,0.0148926,-0.00186157,-0.00148926
13345,16309,-16329,16705,-16543,0.000372314,0.0163818,-0.00819092,0.00632935
13537,16550,-16566,16949,-16783,0.00930786,0.018988,0.00707397,0.0052124
13730,16792,-16805,17194,-17023,0.000744629,0.020105,0.00744629,0.00111694
13918,17031,-17042,17439,-17266,0.00819092,0.0186157,0.0126587,-0.00372314
14107,17264,-17277,17675,-17501,0.00372314,0.0186157,0.00670166,0.00670166
14296,17497,-17511,17917,-17736,0.00186157,0.0208496,0.00632935,-0.00484009
14492,17736,-17744,18159,-17973,-0.00297852,0.0204773,0.00632935,-0.00297852
14685,17984,-17986,18405,-18220,0.00223389,0.018988,0.00186157,0.00446777
14876,18225,-18225,18650,-18459,0.0137756,0.0186157,0.00595703,-0.00707397
15065,18460,-18463,18891,-18700,0.00186157,0.0245728,-0.00670166,0.00558472
15257,18697,-18700,19140,-18941,0.00148926,0.0186157,-0.00186157,0.00632935
15446,18936,-18935,19379,-19179,0.00968018,0.0107971,-0.00186157,0.00595703
15637,19176,-19172,19620,-19418,0.0026062,0.0171265,0.00670166,-0.000372314
15827,19413,-19407,19859,-19654,0.0052124,0.0145203,0.00670166,0
16016,19646,-19642,19932,-19895,0.0104248,0.013031,0.0078186,0.0078186
16206,19881,-19875,19921,-19914,0.00707397,0.0212219,0.00744629,0.00707397
16395,19922,-19962,19916,-19911,0.00707397,0.0212219,0.00595703,0.00670166
16584,19922,-19962,19916,-19909,0.00819092,0.0208496,0.00595703,0.00558472
16773,19922,-19962,19916,-19909,0.00893555,0.0204773,0.00893555,0.00595703
16963,19922,-19962,19916,-19909,0.00968018,0.0197327,0.00856323,0.00707397
17151,19922,-19962,19916,-19909,0.00930786,0.0186157,0.00707397,0.00893555
17293,19922,-19962,19916,-19909,0.00930786,0.0186157,0.00707397,0.00893555
