Target speed left (rev/min): 10
Target speed right (rev/min): 10
Target pos left (rev): 1
Target pos right (rev): 1
Data format: <time in ms since beginning>,<position ticks FL>,<position ticks FR>,<position ticks RL>,<position ticks RR>,<current mA FL>,<current mA FR>,<current mA RL>,<current mA RR>
114,0,-4,0,0,-0.111694,0.0424438,-0.086377,0.0297852
260,172,-163,160,-162,0.0119141,0.0424438,0.026062,0.0297852
361,122,-182,95,-174,0.0416992,0.0424438,0.0297852,0.0297852
465,247,-287,194,-357,0.0148926,0.0424438,0.0282959,0.0297852
563,344,-473,217,-486,0,0.0424438,0.0275513,0.0297852
673,422,-594,305,-606,0.0104248,0.0424438,0.0305298,0.0297852
777,534,-761,383,-759,0.0126587,0.0424438,0.0290405,0.0297852
880,621,-911,463,-893,0.00223389,0.0424438,0.0134033,0.0297852
973,717,-1055,543,-1036,0.0126587,0.0424438,0.0245728,0.0297852
1076,799,-1193,613,-1160,0.0275513,0.0424438,0.0171265,0.0297852
1172,892,-1343,693,-1294,-0.00148926,0.0424438,0.0342529,0.0297852
1267,979,-1486,768,-1423,0.00893555,0.0424438,0.0282959,0.0297852
1367,1066,-1623,837,-1547,-0.00819092,0.0424438,0.0305298,0.0297852
1481,1157,-1770,915,-1679,0.00744629,0.0424438,0.0171265,0.0297852
1581,1261,-1936,1002,-1828,0.0111694,0.0424438,0.0290405,0.0297852
1677,1354,-2087,1079,-1964,0.00148926,0.0424438,0.032019,0.0297852
1782,1441,-2224,1151,-2087,0.00968018,0.0424438,0.0253174,0.0297852
1881,1540,-2384,1236,-2231,0.0111694,0.0424438,0.0305298,0.0297852
1982,1627,-2524,1308,-2356,0.0104248,0.0424438,0.0290405,0.0297852
2085,1721,-2672,1384,-2489,0.0104248,0.0424438,0.0215942,0.0297852
2213,1815,-2823,1464,-2625,0.00744629,0.0424438,0.0297852,0.0297852
2308,1932,-3014,1560,-2797,0.00968018,0.0424438,0.0305298,0.0297852
2409,2019,-3151,1630,-2920,0.0119141,0.0424438,0.0290405,0.0297852
2511,2112,-3301,1710,-3055,0.0178711,0.0424438,0.0349976,0.0297852
2607,2202,-3447,1783,-3186,-0.00595703,0.0424438,0.032019,0.0297852
2700,2293,-3589,1855,-3313,0.0134033,0.0424438,0.0297852,0.0297852
2803,2377,-3726,1927,-3437,0.0148926,0.0424438,0.0275513,0.0297852
2903,2469,-3876,2003,-3571,0.0134033,0.0424438,0.0312744,0.0297852
3007,2559,-4024,2077,-3704,0.0104248,0.0424438,0.0327637,0.0297852
3108,2656,-4176,2156,-3841,0.0111694,0.0424438,0.0312744,0.0297852
3211,2744,-4325,2232,-3974,0.0111694,0.0424438,0.0104248,0.0297852
3313,2840,-4476,2309,-4110,0.0193604,0.0424438,0.00968018,0.0297852
3417,2931,-4627,2388,-4246,0.00893555,0.0424438,0.0305298,0.0297852
3520,3027,-4778,2466,-4382,0.0111694,0.0424438,0.0126587,0.0297852
3621,3119,-4929,2543,-4517,0.000744629,0.0424438,0.0230835,0.0297852
3723,3212,-5077,2622,-4651,0.00744629,0.0424438,0.0312744,0.0297852
3830,3305,-5228,2698,-4786,-0.00297852,0.0424438,0.0275513,0.0297852
3929,3404,-5387,2782,-4929,0.0119141,0.0424438,0.0290405,0.0297852
4031,3493,-5530,2857,-5058,0.0141479,0.0424438,0.0297852,0.0297852
4132,3586,-5681,2935,-5192,0.00893555,0.0424438,0.0312744,0.0297852
4236,3678,-5829,3012,-5326,0.0148926,0.0424438,0.0297852,0.0297852
4337,3771,-5982,3090,-5463,-0.00595703,0.0424438,0.020105,0.0297852
4439,3863,-6130,3167,-5596,0.0111694,0.0424438,0.0290405,0.0297852
4542,3957,-6280,3247,-5731,0.0052124,0.0424438,0.0297852,0.0297852
4645,4050,-6431,3324,-5866,0.00372314,0.0424438,0.0245728,0.0297852
4746,4146,-6584,3403,-6003,0.00744629,0.0424438,0.0290405,0.0297852
4853,4237,-6731,3480,-6136,0.00968018,0.0424438,0.0275513,0.0297852
4954,4339,-6893,3563,-6280,-0.0134033,0.0424438,0.0275513,0.0297852
5059,4426,-7037,3639,-6410,0.0126587,0.0424438,0.0156372,0.0297852
5157,4525,-7195,3722,-6552,-0.00148926,0.0424438,0.0305298,0.0297852
5259,4612,-7335,3793,-6678,-0.00372314,0.0424438,0.0253174,0.0297852
5363,4703,-7485,3873,-6813,-0.00670166,0.0424438,0.0297852,0.0297852
5464,4799,-7639,3951,-6950,0.0275513,0.0424438,0.0305298,0.0297852
5567,4890,-7787,4028,-7083,0.0104248,0.0424438,0.0305298,0.0297852
5668,4984,-7940,4108,-7220,0.00893555,0.0424438,0.0312744,0.0297852
5781,5077,-8090,4186,-7355,0.00670166,0.0424438,0.0312744,0.0297852
5876,5180,-8257,4272,-7505,0.00893555,0.0424438,0.0208496,0.0297852
5977,5267,-8396,4344,-7630,0.00223389,0.0424438,0.0312744,0.0297852
6078,5356,-8542,4419,-7761,0.0171265,0.0424438,0.0335083,0.0297852
6181,5448,-8691,4496,-7895,0.0156372,0.0424438,0.0156372,0.0297852
6283,5541,-8843,4574,-8030,0.0104248,0.0424438,0.0335083,0.0297852
6398,5632,-8993,4651,-8165,0.00148926,0.0424438,0.0312744,0.0297852
6490,5737,-9162,4739,-8316,0.0111694,0.0424438,0.0297852,0.0297852
6590,5817,-9297,4807,-8438,0.0126587,0.0424438,0.0312744,0.0297852
6695,5908,-9445,4882,-8570,0.00819092,0.0424438,0.0305298,0.0297852
6796,6002,-9601,4964,-8710,0.0134033,0.0424438,0.0186157,0.0297852
6905,6093,-9748,5040,-8842,0,0.0424438,0.00893555,0.0297852
7000,6192,-9908,5123,-8985,0.0134033,0.0424438,0.0178711,0.0297852
7103,6279,-10031,5195,-9112,-0.00148926,0.0424438,0.0126587,0.0297852
7205,6371,-9990,5274,-9247,0.0111694,0.0424438,0.0349976,0.0297852
7314,6465,-10007,5352,-9382,0.0052124,0.0424438,0.0148926,0.0297852
7417,6566,-10008,5437,-9527,0.0104248,0.0424438,0.0282959,0.0297852
7513,6660,-9999,5516,-9666,0.0126587,0.0424438,0.0290405,0.0297852
7619,6745,-10024,5589,-9789,0.0119141,0.0424438,0.0134033,0.0297852
7716,6841,-10007,5670,-9930,-0.00744629,0.0424438,0.0186157,0.0297852
7819,6931,-10004,5742,-10022,-0.00968018,0.0424438,0.032019,0.0297852
7921,7023,-10008,5821,-9981,0.00968018,0.0424438,0.0290405,0.0297852
8025,7116,-10019,5898,-10009,0.0238281,0.0424438,0.0275513,0.0297852
8127,7211,-10005,5979,-10011,0.0111694,0.0424438,0.0312744,0.0297852
8228,7305,-9999,6055,-9988,0.00744629,0.0424438,0.020105,0.0297852
8331,7395,-10014,6132,-10023,0.00893555,0.0424438,0.0290405,0.0297852
8434,7490,-10012,6211,-9990,0.0126587,0.0424438,0.0275513,0.0297852
8537,7585,-10008,6290,-10014,0.00595703,0.0424438,0.0282959,0.0297852
8638,7682,-10004,6370,-10003,0.0119141,0.0424438,0.0275513,0.0297852
8740,7773,-9998,6448,-10000,0.00446777,0.0424438,0.0305298,0.0297852
8845,7868,-10010,6525,-10015,0.0104248,0.0424438,0.0156372,0.0297852
8948,7962,-10003,6605,-9994,0.0052124,0.0424438,0.0290405,0.0297852
9064,8057,-10007,6685,-10006,0.0141479,0.0424438,0.0282959,0.0297852
9165,8166,-10002,6778,-10003,0.0126587,0.0424438,0.0148926,0.0297852
9260,8255,-10016,6853,-10004,0.0119141,0.0424438,0.0312744,0.0297852
9356,8343,-10017,6926,-10008,0.00968018,0.0424438,0.0268066,0.0297852
9457,8430,-10013,7000,-10002,0.0178711,0.0424438,0.0305298,0.0297852
9562,8524,-10012,7079,-10001,-0.000744629,0.0424438,0.0148926,0.0297852
9662,8616,-10006,7158,-9999,0.00968018,0.0424438,0.020105,0.0297852
9764,8709,-10003,7236,-10000,0.0238281,0.0424438,0.0163818,0.0297852
9867,8801,-10014,7314,-9998,0.00968018,0.0424438,0.0119141,0.0297852
9971,8895,-10013,7393,-10005,0.0104248,0.0424438,0.0156372,0.0297852
10072,8991,-10009,7471,-10008,0.0111694,0.0424438,0.0290405,0.0297852
10195,9081,-10004,7549,-10001,0.0104248,0.0424438,0.0134033,0.0297852
10289,9195,-9999,7645,-9997,0.00968018,0.0424438,0.0104248,0.0297852
10389,9281,-10016,7718,-10003,0.0126587,0.0424438,0.0297852,0.0297852
10489,9371,-10016,7792,-10008,-0.00223389,0.0424438,0.0297852,0.0297852
10586,9464,-10013,7870,-10002,0.00744629,0.0424438,0.0148926,0.0297852
10697,9550,-10009,7943,-9995,0.0119141,0.0424438,0.0134033,0.0297852
10791,9652,-10009,8028,-10011,-0.00819092,0.0424438,0.0193604,0.0297852
10895,9738,-10005,8101,-10006,0.00148926,0.0424438,0.0327637,0.0297852
10995,9833,-10013,8180,-10006,0.0111694,0.0424438,0.0126587,0.0297852
11106,9922,-10012,8255,-10000,-0.00819092,0.0424438,0.0171265,0.0297852
11213,9991,-10008,8342,-9993,0.0111694,0.0424438,0.0297852,0.0297852
11307,9961,-10002,8421,-10002,-0.0119141,0.0424438,0.0245728,0.0297852
11426,9975,-10012,8494,-9995,0.00223389,0.0424438,0.0104248,0.0297852
11523,9972,-10017,8585,-10013,0.0104248,0.0424438,0.0148926,0.0297852
11618,9972,-10013,8658,-10003,0.00893555,0.0424438,0.0312744,0.0297852
11715,9972,-10012,8728,-10001,0.0126587,0.0424438,0.0171265,0.0297852
11813,9977,-10007,8803,-9999,0.0134033,0.0424438,0.0305298,0.0297852
11916,9985,-10004,8877,-10020,0.0134033,0.0424438,0.0297852,0.0297852
12017,9964,-10008,8955,-10001,0.00893555,0.0424438,0.0290405,0.0297852
12143,9977,-10007,9031,-10017,-0.00372314,0.0424438,0.0215942,0.0297852
12248,9984,-10016,9128,-9996,0.00148926,0.0424438,0.0156372,0.0297852
12347,9975,-10009,9207,-9992,0.00595703,0.0424438,0.0305298,0.0297852
12453,9969,-10006,9282,-10015,0.0134033,0.0424438,0.0290405,0.0297852
12548,9973,-10002,9362,-10003,0.0126587,0.0424438,0.0327637,0.0297852
12648,9967,-10008,9433,-10001,0.0104248,0.0424438,0.0312744,0.0297852
12753,9973,-10009,9508,-10005,0.0104248,0.0424438,0.0186157,0.0297852
12915,9969,-10004,9592,-10006,0.0141479,0.0424438,0.0215942,0.0297852
13014,9983,-10014,9712,-10001,0.00968018,0.0424438,0.0297852,0.0297852
13118,9977,-10008,9789,-9998,0.0052124,0.0424438,0.0312744,0.0297852
13219,9977,-10003,9867,-10009,0.0148926,0.0424438,0.0282959,0.0297852
13325,9987,-10012,9944,-10001,0.0148926,0.0424438,0.0446777,0.0297852
13427,9963,-10003,9973,-10008,0.00744629,0.0424438,0.0297852,0.0297852
13527,9973,-10018,9962,-10005,0.0111694,0.0424438,0.0215942,0.0297852
13629,9973,-10013,9979,-10001,0.00819092,0.0424438,0.0312744,0.0297852
13732,9973,-10010,9956,-9996,0.00148926,0.0424438,0.0290405,0.0297852
13834,9970,-10004,9965,-10011,0.00148926,0.0424438,0.0290405,0.0297852
13928,9979,-10018,9963,-10003,0.00893555,0.0424438,0.032019,0.0297852
14023,9965,-10010,9969,-10001,0.00670166,0.0424438,0.0335083,0.0297852
14131,9979,-10009,9963,-9999,0.00968018,0.0424438,0.0290405,0.0297852
14226,9982,-10002,9959,-10009,0.0111694,0.0424438,0.0275513,0.0297852
14335,9973,-10010,9963,-10003,0.0111694,0.0424438,0.032019,0.0297852
14430,9967,-9999,9968,-10004,0.0156372,0.0424438,0.0275513,0.0297852
14533,9979,-10019,9974,-9999,0.00893555,0.0424438,0.0305298,0.0297852
14633,9965,-10014,9960,-9995,0.0156372,0.0424438,0.0186157,0.0297852
14738,9971,-10005,9965,-10016,0.0052124,0.0424438,0.0275513,0.0297852
14841,9976,-9999,9967,-9995,0.0119141,0.0424438,0.0134033,0.0297852
14939,9981,-10019,9974,-10006,0.0119141,0.0424438,0.0134033,0.0297852
