Target speed left (rev/min): 5
Target speed right (rev/min): 5
Target pos left (rev): 1
Target pos right (rev): 1
Data format: <time in ms since beginning>,<position ticks FL>,<position ticks FR>,<position ticks RL>,<position ticks RR>,<current mA FL>,<current mA FR>,<current mA RL>,<current mA RR>
133,0,-13,-1,-15,0.00670166,0.020105,0.0122864,0.00744629
236,1,-89,8,-69,0.0122864,0.0208496,0.0145203,0.00297852
329,20,-148,29,-124,0.0145203,0.0197327,0.0111694,0.00409546
449,44,-209,60,-178,0.0141479,0.0193604,0.0126587,0.00856323
543,83,-276,95,-239,0.0078186,0.0208496,0.00968018,0.00484009
645,115,-333,124,-291,0.0122864,0.0208496,0.0119141,0.00297852
748,150,-394,157,-346,0.0100525,0.0160095,0.0126587,0.00819092
850,186,-455,189,-402,0.0152649,0.0204773,0.00968018,0.00856323
952,221,-517,223,-458,0.013031,0.0219666,0.013031,0.00297852
1060,256,-578,255,-513,0.0141479,0.0215942,0.00819092,0.00409546
1161,293,-643,289,-571,0.0137756,0.0167542,0.0126587,0.00893555
1260,328,-703,321,-626,0.0100525,0.020105,0.00856323,0.00744629
1362,362,-763,353,-680,0.0111694,0.0215942,0.0126587,0.00148926
1464,398,-824,386,-735,0.0078186,0.0219666,0.013031,0.00595703
1567,433,-886,418,-791,0.0122864,0.0163818,0.0122864,0.0078186
1669,468,-948,451,-847,0.0119141,0.0167542,0.0119141,0.00670166
1772,504,-1009,484,-902,0.0134033,0.0197327,0.00819092,0.00558472
1866,539,-1071,517,-958,0.0148926,0.0219666,0.0126587,0.00446777
1976,574,-1131,548,-1013,0.0145203,0.0167542,0.00819092,0.00744629
2079,610,-1194,582,-1070,0.013031,0.0204773,0.0126587,0.00372314
2181,646,-1255,615,-1125,0.0137756,0.0204773,0.0104248,0.00707397
2284,682,-1317,648,-1181,0.0145203,0.0223389,0.0119141,0.00707397
2399,718,-1379,681,-1237,0.00930786,0.0204773,0.0137756,0.00335083
2493,759,-1450,719,-1301,0.0111694,0.020105,0.00930786,0.0115417
2591,790,-1504,748,-1351,0.00968018,0.020105,0.00819092,0.00744629
2693,825,-1563,780,-1405,0.0100525,0.0148926,0.0145203,0.00819092
2796,861,-1626,814,-1462,0.00930786,0.0160095,0.00893555,0.00446777
2898,896,-1687,846,-1516,0.00930786,0.0193604,0.0126587,0.00819092
3000,933,-1748,880,-1572,0.00819092,0.020105,0.0122864,0.00670166
3095,968,-1810,913,-1628,0.0152649,0.0204773,0.0134033,0.00670166
3205,1003,-1870,946,-1683,0.00707397,0.0197327,0.0126587,0.00819092
3308,1040,-1933,980,-1739,0.0078186,0.0208496,0.0078186,0.00893555
3410,1076,-1995,1013,-1796,0.00856323,0.0178711,0.0115417,0.00335083
3512,1112,-2058,1047,-1852,0.00930786,0.0186157,0.00893555,0.00930786
3615,1147,-2118,1080,-1907,0.00856323,0.0215942,0.013031,0.00930786
3717,1183,-2181,1114,-1964,0.00968018,0.0167542,0.013031,0.00446777
3822,1219,-2242,1148,-2019,0.0100525,0.0174988,0.00707397,0.0026062
3922,1256,-2306,1183,-2076,0.00893555,0.0234558,0.0137756,0.00670166
4024,1291,-2366,1216,-2130,0.00930786,0.0212219,0.0134033,0.00670166
4127,1327,-2428,1250,-2186,0.0119141,0.018988,0.00930786,0.00446777
4229,1363,-2489,1284,-2242,0.0145203,0.0208496,0.0137756,0.00670166
4332,1398,-2552,1318,-2297,0.0137756,0.0197327,0.0145203,0.00744629
4434,1434,-2613,1353,-2353,0.0137756,0.0208496,0.00632935,0.00819092
4536,1469,-2675,1387,-2409,0.0152649,0.0145203,0.0122864,0.00446777
4631,1505,-2736,1421,-2465,0.0078186,0.020105,0.013031,0.00372314
4741,1540,-2797,1455,-2520,0.0134033,0.0156372,0.0134033,0.00297852
4833,1576,-2860,1490,-2577,0.0137756,0.0219666,0.0137756,0.00670166
4946,1609,-2915,1521,-2627,0.0122864,0.0197327,0.0122864,0.00744629
5048,1648,-2983,1558,-2688,0.013031,0.0186157,0.0134033,0.00670166
5151,1684,-3045,1592,-2744,0.0141479,0.0204773,0.00930786,0.0126587
5254,1720,-3107,1627,-2800,0.0134033,0.0160095,0.0111694,0.00856323
5356,1756,-3168,1662,-2856,0.013031,0.0219666,0.0126587,0.00893555
5458,1792,-3230,1696,-2911,0.0126587,0.0215942,0.0119141,0.00446777
5560,1828,-3292,1730,-2967,0.0122864,0.0152649,0.0111694,0.00670166
5661,1864,-3354,1765,-3023,0.0111694,0.020105,0.0137756,0.00707397
5765,1900,-3416,1799,-3079,0.0145203,0.0174988,0.0141479,0.00856323
5868,1936,-3477,1833,-3135,0.013031,0.018988,0.0134033,0.00893555
5972,1972,-3539,1867,-3191,0.0126587,0.0208496,0.00968018,0.00744629
6073,2009,-3603,1903,-3249,0.0137756,0.0227112,0.0122864,0.0078186
6177,2043,-3662,1936,-3303,0.0134033,0.018988,0.0119141,0.0026062
6277,2082,-3728,1973,-3362,0.0111694,0.0160095,0.013031,0.00856323
6380,2116,-3786,2006,-3414,0.013031,0.018988,0.00856323,0.0100525
6482,2152,-3848,2040,-3470,0.0111694,0.0208496,0.0122864,0.0052124
6584,2187,-3909,2075,-3526,0.0122864,0.0141479,0.0119141,0.0078186
6687,2224,-3972,2110,-3582,0.0137756,0.0193604,0.0152649,0.00707397
6792,2259,-4033,2144,-3638,0.0134033,0.0193604,0.0134033,0.00558472
6892,2296,-4097,2179,-3694,0.0100525,0.0115417,0.0137756,0.00484009
6994,2331,-4157,2213,-3749,0.00893555,0.0160095,0.013031,0.0078186
7097,2367,-4219,2248,-3805,0.00930786,0.0219666,0.0119141,0.00632935
7199,2403,-4281,2283,-3861,0.00968018,0.0219666,0.00856323,0.00595703
7301,2439,-4342,2317,-3916,0.0078186,0.020105,0.0126587,0.00893555
7403,2475,-4404,2352,-3973,0.0078186,0.0208496,0.0141479,0.00930786
7506,2511,-4466,2387,-4028,0.00930786,0.020105,0.0126587,0.00446777
7608,2547,-4528,2421,-4084,0.00893555,0.0156372,0.013031,0.0100525
7711,2583,-4590,2456,-4140,0.0145203,0.020105,0.00819092,0.00930786
7813,2619,-4652,2491,-4196,0.0160095,0.0208496,0.00968018,0.00595703
7916,2655,-4714,2525,-4252,0.0126587,0.0174988,0.0126587,0.00707397
8021,2692,-4777,2561,-4309,0.0134033,0.0197327,0.0119141,0.00744629
8121,2729,-4839,2596,-4365,0.0107971,0.0215942,0.0137756,0.00558472
8223,2764,-4900,2630,-4420,0.013031,0.0204773,0.0078186,0.00297852
8330,2801,-4961,2665,-4475,0.0137756,0.0193604,0.00930786,0.0078186
8428,2839,-5025,2701,-4533,0.0119141,0.0212219,0.0126587,0.00893555
8530,2873,-5085,2735,-4587,0.0134033,0.0137756,0.0126587,0.00335083
8632,2909,-5147,2770,-4642,0.013031,0.0193604,0.0126587,0.00819092
8735,2945,-5208,2805,-4698,0.0107971,0.0227112,0.0126587,0.00670166
8837,2981,-5270,2840,-4754,0.013031,0.0212219,0.00968018,0.00446777
8939,3018,-5332,2875,-4809,0.0137756,0.0137756,0.00707397,0.00856323
9042,3053,-5394,2910,-4865,0.0137756,0.0212219,0.0145203,0.00670166
9144,3090,-5456,2945,-4921,0.0141479,0.0204773,0.0115417,0.00335083
9247,3126,-5517,2980,-4977,0.0126587,0.0141479,0.0145203,0.0026062
9349,3162,-5579,3015,-5033,0.0141479,0.0197327,0.0126587,0.00893555
9451,3199,-5641,3050,-5089,0.0134033,0.0212219,0.00968018,0.00744629
9555,3235,-5703,3085,-5144,0.0137756,0.0163818,0.0078186,0.00446777
9656,3271,-5765,3120,-5200,0.00856323,0.0152649,0.0122864,0.00930786
9759,3307,-5827,3155,-5256,0.0141479,0.018988,0.0134033,0.0078186
9861,3343,-5889,3191,-5312,0.00893555,0.0163818,0.0115417,0.00558472
9963,3379,-5951,3226,-5368,0.00819092,0.020105,0.0122864,0.00744629
10066,3416,-6013,3261,-5424,0.0126587,0.0193604,0.0152649,0.00744629
10168,3452,-6075,3296,-5479,0.0107971,0.0223389,0.0126587,0.0026062
10280,3488,-6137,3332,-5536,0.00930786,0.0156372,0.00893555,0.00707397
10382,3531,-6209,3373,-5601,0.00893555,0.0212219,0.013031,0.00856323
10477,3564,-6265,3406,-5652,0.0152649,0.0167542,0.00856323,0.00335083
10578,3597,-6322,3438,-5703,0.0111694,0.0163818,0.0145203,0.00446777
10680,3633,-6384,3473,-5681,0.0115417,0.0238281,0.0126587,-0.638892
10783,3670,-6446,3509,-5489,0.0137756,0.0197327,0.0122864,-0.638892
10885,3706,-6508,3544,-5258,0.013031,0.0152649,0.0145203,-0.638892
10988,3742,-6570,3580,-5118,0.0111694,0.0208496,0.0145203,-0.638892
11095,3779,-6632,3615,-4923,0.00893555,0.0208496,0.00819092,-0.638892
11202,3817,-6697,3653,-4678,0.013031,0.0204773,0.0145203,-0.638892
11295,3856,-6762,3690,-4523,0.0078186,0.0219666,0.013031,-0.638892
11397,3889,-6818,3722,-4301,0.0145203,0.020105,0.0078186,-0.638892
11499,3925,-6880,3757,-4161,0.0134033,0.0145203,0.00968018,-0.638892
11602,3961,-6942,3793,-3964,0.00819092,0.0219666,0.00930786,-0.638892
11705,3997,-7004,3828,-3731,0.0119141,0.0208496,0.0152649,-0.638892
11807,4034,-7067,3864,-3569,0.00856323,0.0152649,0.0107971,-0.638892
11909,4070,-7128,3900,-3337,0.0111694,0.0219666,0.013031,-0.638892
12012,4108,-7193,3936,-3192,0.00707397,0.0171265,0.013031,-0.638892
12114,4143,-7253,3971,-2998,0.0126587,0.0219666,0.0119141,-0.638892
12217,4179,-7315,4007,-2788,0.0111694,0.0152649,0.0078186,-0.638892
12320,4217,-7378,4043,-2618,0.0137756,0.0163818,0.0134033,-0.638892
12421,4253,-7440,4080,-2389,0.0145203,0.0171265,0.013031,-0.638892
12524,4289,-7501,4115,-2250,0.013031,0.0215942,0.0134033,-0.638892
12626,4326,-7563,4150,-2053,0.0141479,0.020105,0.0134033,-0.638892
12729,4363,-7625,4187,-1845,0.0145203,0.0167542,0.0126587,-0.638892
12831,4400,-7688,4223,-1671,0.0134033,0.0219666,0.013031,-0.638892
12933,4436,-7749,4258,-1459,0.00893555,0.0197327,0.0126587,-0.638892
13039,4473,-7813,4294,-1309,0.0119141,0.0197327,0.0115417,-0.638892
13138,4511,-7877,4331,-1053,0.013031,0.0204773,0.0122864,-0.638892
13240,4546,-7937,4366,-935,0.0137756,0.0178711,0.0137756,-0.638892
13343,4582,-7998,4401,-684,0.0126587,0.0208496,0.0126587,-0.638892
13445,4619,-8061,4438,-556,0.0137756,0.0107971,0.0134033,-0.638892
13547,4655,-8123,4474,-296,0.0137756,0.0208496,0.0122864,-0.638892
13650,4692,-8185,4510,-178,0.0137756,0.0197327,0.013031,-0.638892
13752,4729,-8247,4546,64,0.0126587,0.0182434,0.013031,-0.638892
13855,4765,-8310,4581,208,0.0100525,0.0197327,0.0115417,-0.638892
13957,4802,-8372,4618,439,0.00968018,0.0204773,0.0126587,-0.638892
14059,4838,-8434,4653,588,0.0100525,0.0178711,0.0134033,-0.638892
14162,4875,-8496,4690,792,0.00819092,0.0148926,0.013031,-0.638892
14264,4912,-8558,4726,978,0.0126587,0.0215942,0.0152649,-0.638892
14367,4948,-8620,4762,1160,0.0152649,0.0160095,0.0134033,-0.638892
14469,4985,-8681,4797,1358,0.0141479,0.020105,0.013031,-0.638892
14571,5022,-8744,4834,1515,0.0126587,0.020105,0.0122864,-0.638892
14674,5058,-8805,4870,1750,0.00856323,0.0197327,0.013031,-0.638892
14770,5096,-8868,4906,1882,0.0137756,0.0171265,0.0137756,-0.638892
14879,5131,-8929,4942,2127,0.0100525,0.0174988,0.0126587,-0.638892
14981,5168,-8992,4979,2252,0.0104248,0.0186157,0.0137756,-0.638892
15084,5205,-9054,5015,2512,0.0119141,0.020105,0.013031,-0.638892
15186,5242,-9116,5052,2623,0.00744629,0.0204773,0.0122864,-0.638892
15289,5278,-9179,5088,2869,0.0134033,0.0167542,0.0100525,-0.638892
15391,5315,-9241,5126,3003,0.0148926,0.0208496,0.0111694,-0.638892
15493,5351,-9303,5162,3244,0.0111694,0.0167542,0.0126587,-0.638892
15595,5388,-9365,5199,3377,0.0115417,0.0167542,0.00856323,-0.638892
15698,5425,-9427,5235,3593,0.0119141,0.0212219,0.0134033,-0.638892
15800,5461,-9489,5271,3761,0.00744629,0.0163818,0.013031,-0.638892
15903,5498,-9551,5308,3957,0.0111694,0.0197327,0.0134033,-0.638892
16006,5535,-9614,5344,4136,0.00819092,0.0204773,0.0134033,-0.638892
16108,5573,-9677,5381,4306,0.0119141,0.0186157,0.0126587,-0.638892
16213,5608,-9738,5416,4523,0.0119141,0.0197327,0.0126587,-0.638892
16312,5647,-9802,5453,4669,0.0126587,0.0208496,0.0141479,-0.638892
16415,5682,-9862,5488,4898,0.0104248,0.0193604,0.0145203,-0.638892
16518,5719,-9924,5524,5022,0.0134033,0.0208496,0.0119141,-0.638892
16620,5756,-9984,5561,5273,0.0111694,0.0145203,0.0122864,-0.638892
16722,5792,-10009,5597,5385,0.0100525,0.0208496,0.0122864,-0.638892
16824,5828,-10004,5633,5635,0.013031,0.0197327,0.00819092,-0.638892
16928,5865,-9999,5669,5748,0.0134033,0.0223389,0.0148926,-0.638892
17029,5901,-9990,5706,5992,0.0134033,0.0186157,0.0137756,-0.638892
17132,5938,-9987,5742,6113,0.013031,0.0204773,0.00707397,-0.638892
17234,5975,-9971,5778,6341,0.0134033,0.00372314,0.0122864,-0.638892
17336,6011,-9984,5814,6480,0.0141479,0.0167542,0.0145203,-0.638892
17441,6048,-9971,5851,6687,0.0111694,0.0107971,0.00968018,-0.638892
17593,6096,-9978,5898,6934,0.0134033,0.020105,0.00707397,-0.638892
17694,6140,-9991,5943,7096,0.00968018,0.0197327,0.0126587,-0.638892
17796,6176,-9970,5978,7337,0.00670166,0.0215942,0.0134033,-0.638892
17899,6213,-9990,6014,7454,0.00819092,0.0174988,0.0145203,-0.638892
18003,6249,-9970,6051,7687,0.0148926,0.0208496,0.0126587,-0.638892
18105,6287,-9987,6088,7823,0.0119141,0.0212219,0.0119141,-0.638892
18220,6324,-9973,6124,8035,0.0148926,0.0197327,0.0134033,-0.638892
18311,6364,-9982,6165,8220,0.0111694,0.0156372,0.00670166,-0.638892
18418,6397,-9978,6198,8377,0.00744629,0.0208496,0.00930786,-0.638892
18538,6437,-9979,6238,8588,0.013031,0.0204773,0.0145203,-0.638892
18641,6480,-9991,6281,8752,0.0152649,0.0204773,0.0111694,-0.638892
18770,6518,-9971,6318,9004,0.00707397,0.020105,0.00856323,-0.638892
18872,6560,-9987,6361,9153,0.00819092,0.0160095,0.00707397,-0.638892
18975,6597,-9973,6398,9371,0.0122864,0.0204773,0.00670166,-0.638892
19077,6634,-9984,6434,9515,0.0126587,0.020105,0.00893555,-0.638892
19179,6671,-9978,6471,9712,0.0145203,0.0212219,0.0126587,-0.638892
19284,6707,-9981,6507,9879,0.0119141,0.0186157,0.013031,-0.638892
19384,6746,-9986,6546,10054,0.00744629,0.0219666,0.0145203,-0.638892
19487,6781,-9978,6580,10244,0.0100525,0.0119141,0.0134033,-0.638892
19589,6818,-9990,6616,10392,0.0115417,0.0160095,0.0122864,-0.638892
19692,6854,-9975,6653,10610,0.0111694,0.0227112,0.0115417,-0.638892
19794,6891,-9991,6689,10737,0.0107971,0.0227112,0.0126587,-0.638892
19898,6928,-9972,6727,10971,0.0160095,0.0197327,0.00930786,-0.638892
19999,6965,-9990,6763,11087,0.013031,0.0178711,0.00595703,-0.638892
20101,7001,-9970,6799,11318,0.0126587,0.0204773,0.00744629,-0.638892
20203,7038,-9989,6836,11435,0.0145203,0.0208496,0.0119141,-0.638892
20306,7074,-9971,6873,11685,0.0119141,0.018988,0.0119141,-0.638892
20408,7111,-9986,6910,11787,0.00893555,0.0163818,0.0115417,-0.638892
20511,7147,-9974,6947,12007,0.0148926,0.0204773,0.00856323,-0.638892
20613,7184,-9984,6983,12144,0.00707397,0.0219666,0.0115417,-0.638892
20715,7221,-9979,7020,12354,0.0126587,0.0215942,0.0078186,-0.638892
20818,7257,-9981,7057,12497,0.0137756,0.0212219,0.00744629,-0.638892
20921,7294,-9985,7094,12688,0.0134033,0.0208496,0.013031,-0.638892
21023,7330,-9977,7131,12849,0.0122864,0.013031,0.00595703,-0.638892
21125,7367,-9990,7167,13012,0.0141479,0.0174988,0.0126587,-0.638892
21225,7404,-9974,7204,13217,0.0145203,0.020105,0.0122864,-0.638892
21330,7440,-9991,7239,13352,0.00819092,0.0215942,0.0126587,-0.638892
21432,7478,-9971,7277,13572,0.0100525,0.0219666,0.0137756,-0.638892
21535,7514,-9990,7314,13692,0.0104248,0.0174988,0.0148926,-0.638892
21630,7551,-9970,7351,13928,0.0107971,0.0208496,0.0134033,-0.638892
21739,7587,-9989,7386,14031,0.0141479,0.0204773,0.0111694,-0.638892
21842,7624,-9971,7424,14265,0.013031,0.0212219,0.00893555,-0.638892
21944,7661,-9986,7461,14374,0.0141479,0.0167542,0.0126587,-0.638892
22047,7697,-9975,7497,14609,0.0122864,0.0208496,0.0115417,-0.638892
22149,7734,-9983,7535,14717,0.013031,0.0219666,0.0119141,-0.638892
22254,7770,-9980,7571,14932,0.013031,0.0212219,0.0104248,-0.638892
22354,7809,-9979,7610,15078,0.00744629,0.0212219,0.00968018,-0.638892
22456,7843,-9986,7645,15335,0.00968018,0.0193604,0.00856323,-0.638892
22559,7880,-9977,7682,15590,0.00856323,0.013031,0.00893555,-0.638892
22661,7917,-9991,7719,15861,0.00856323,0.0230835,0.0126587,-0.638892
22763,7953,-9974,7756,16133,0.0104248,0.0212219,0.013031,-0.638892
22866,7990,-9991,7792,16405,0.0137756,0.0193604,0.0134033,-0.638892
22968,8027,-9971,7829,16678,0.0100525,0.0208496,0.013031,-0.638892
23071,8064,-9990,7866,16949,0.0145203,0.0174988,0.0122864,-0.638892
23173,8100,-9970,7903,17220,0.0137756,0.0219666,0.00707397,-0.638892
23275,8137,-9988,7940,17492,0.00893555,0.0219666,0.0141479,-0.638892
23381,8173,-9972,7977,17763,0.00744629,0.020105,0.0134033,-0.638892
23480,8211,-9985,8015,18042,0.0111694,0.0174988,0.0115417,-0.638892
23583,8247,-9976,8051,18305,0.00744629,0.0227112,0.0119141,-0.638892
23685,8283,-9982,8088,18575,0.0104248,0.0204773,0.00744629,-0.638892
23788,8320,-9981,8125,18846,0.0078186,0.0208496,0.00819092,-0.638892
23890,8356,-9979,8162,19116,0.013031,0.0204773,0.0122864,-0.638892
23992,8393,-9987,8199,19386,0.0119141,0.0178711,0.0134033,-0.638892
24088,8430,-9975,8236,19657,0.0122864,0.0126587,0.0145203,-0.638892
24197,8466,-9990,8272,19922,0.0134033,0.0215942,0.0122864,-0.638892
24297,8503,-9973,8310,20196,0.0145203,0.0219666,0.00819092,-0.638892
24402,8538,-9990,8346,20461,0.0134033,0.018988,0.0078186,-0.638892
24574,8576,-9968,8385,20735,0.0122864,0.0212219,0.00670166,-0.638892
24671,8637,-9972,8447,21187,0.00819092,0.0230835,0.0145203,-0.638892
24763,8672,-9991,8482,21442,0.0141479,0.0163818,0.0134033,-0.638892
24862,8705,-9976,8516,21684,0.0107971,0.0126587,0.00968018,-0.638892
24966,8740,-9990,8552,21942,0.0145203,0.0212219,0.0134033,-0.638892
25069,8777,-9971,8589,22215,0.0122864,0.020105,0.0137756,-0.638892
25171,8813,-9990,8627,22484,0.0137756,0.0174988,0.0119141,-0.638892
25273,8850,-9968,8664,22751,0.013031,0.0212219,0.0126587,-0.638892
25375,8887,-9988,8701,23019,0.0134033,0.0208496,0.0119141,-0.638892
25478,8924,-9970,8738,23286,0.0145203,0.0230835,0.00893555,-0.638892
25581,8960,-9987,8775,23554,0.0100525,0.020105,0.0137756,-0.638892
25683,8997,-9973,8813,23814,0.00893555,0.0208496,0.0148926,-0.638892
25783,9034,-9984,8850,24077,0.0104248,0.0223389,0.013031,-0.638892
25888,9069,-9977,8887,24329,0.0152649,0.0215942,0.0107971,-0.638892
25990,9107,-9981,8924,24595,0.0148926,0.0204773,0.00968018,-0.638892
26098,9143,-9983,8961,24855,0.0145203,0.0219666,0.0134033,-0.638892
26195,9182,-9977,9001,25131,0.0119141,0.0122864,0.0134033,-0.638892
26297,9216,-9989,9036,25376,0.0152649,0.0163818,0.0134033,-0.638892
26398,9253,-9975,9073,25634,0.0134033,0.0215942,0.00893555,-0.638892
26502,9289,-9991,9110,25888,0.0137756,0.0212219,0.0134033,-0.638892
26605,9326,-9972,9148,26152,0.0078186,0.0141479,0.0141479,-0.638892
26707,9362,-9990,9185,26411,0.00930786,0.0182434,0.0115417,-0.638892
26810,9399,-9970,9222,26670,0.0104248,0.013031,0.0134033,-0.638892
26910,9438,-9988,9261,26942,0.013031,0.0212219,0.00744629,-0.638892
27012,9472,-9971,9296,27182,0.0152649,0.0215942,0.0137756,-0.638892
27062,9472,-9971,9296,27182,0.0152649,0.0215942,0.0137756,-0.638892
