Target speed left front (rev/min): 1
Target speed left back (rev/min): 1
Target speed right front (rev/min): 1
Target speed right back (rev/min): 1
Target pos left (rev): 1
Target pos right (rev): 1
Data format: <time in ms since beginning>,<position ticks FL>,<position ticks FR>,<position ticks RL>,<position ticks RR>,<current mA FL>,<current mA FR>,<current mA RL>,<current mA RR>
191,8,-31,37,-84,0.0115417,-0.00595703,-0.0234558,0.0279236
385,-8,-18,-11,-44,0.0119141,0.0242004,0.0137756,0.0156372
581,93,-141,83,-128,-0.0026062,0.0275513,0.0115417,0.0145203
772,139,-236,134,-223,0.0078186,0.0174988,0.0134033,0.0167542
964,135,-271,129,-268,0.00856323,0.0234558,0.0100525,0.0152649
1160,155,-333,145,-316,0.00819092,0.0212219,0.0122864,0.0156372
1354,182,-404,171,-375,0.00968018,0.0230835,0.0115417,0.0141479
1547,207,-467,190,-434,0.00595703,0.0197327,0.0107971,0.0163818
1739,226,-529,207,-489,0.00632935,0.0253174,0.0119141,0.0148926
1930,246,-593,225,-545,0.00893555,0.020105,0.0115417,0.0152649
2124,267,-654,244,-603,0.00930786,0.0171265,0.0126587,0.0160095
2316,290,-716,263,-659,0.00893555,0.0208496,0.013031,0.0141479
2507,313,-778,282,-716,0.00670166,0.0197327,0.0137756,0.0107971
2697,335,-841,301,-772,0.00893555,0.018988,0.0126587,0.0152649
2890,356,-902,319,-827,0.00819092,0.0230835,0.0119141,0.0141479
3085,378,-965,338,-882,0.00968018,0.0219666,0.0119141,0.0160095
3278,400,-1027,357,-936,0.00856323,0.0193604,0.0119141,0.0141479
3471,422,-1089,377,-991,0.00744629,0.0219666,0.00968018,0.0104248
3661,444,-1153,396,-1046,0.0104248,0.0152649,0.0111694,0.0100525
3851,466,-1213,414,-1100,0.00744629,0.0208496,0.0107971,0.0152649
4041,489,-1275,432,-1157,0.00670166,0.0215942,0.0107971,0.0156372
4231,510,-1337,451,-1211,0.00670166,0.0223389,0.00968018,0.0148926
4421,533,-1397,468,-1267,0.00893555,0.0227112,0.00893555,0.0111694
4610,555,-1457,486,-1323,0.00819092,0.0204773,0.0134033,0.0156372
4799,577,-1517,504,-1379,0.00707397,0.0197327,0.0122864,0.0145203
4988,599,-1577,522,-1434,0.00893555,0.0219666,0.0119141,0.0134033
5176,621,-1639,540,-1488,0.00893555,0.0171265,0.0104248,0.0145203
5365,643,-1698,560,-1542,0.00968018,0.0223389,0.00968018,0.0134033
5554,665,-1762,579,-1594,0.00893555,0.0227112,0.0134033,0.0111694
5745,686,-1824,599,-1650,0.00819092,0.0223389,0.0137756,0.0171265
5934,709,-1885,618,-1704,0.0052124,0.0160095,0.013031,0.0104248
6126,731,-1947,639,-1759,0.00819092,0.0212219,0.0104248,0.0171265
6314,754,-2008,657,-1816,0.00893555,0.0234558,0.0122864,0.0156372
6505,777,-2069,676,-1871,0.00707397,0.0223389,0.00856323,0.0156372
6695,800,-2130,695,-1925,0.00223389,0.0182434,0.0111694,0.0182434
6884,823,-2191,713,-1979,0.0052124,0.0186157,0.0122864,0.0156372
7076,846,-2253,732,-2032,0.00819092,0.0223389,0.0137756,0.0148926
7265,871,-2316,750,-2085,0.0119141,0.0178711,0.0126587,0.0115417
7465,892,-2378,769,-2139,0.0100525,0.0230835,0.0115417,0.0145203
7653,914,-2443,789,-2198,0.00856323,0.0178711,0.00893555,0.00968018
7842,936,-2503,806,-2254,0.0100525,0.0186157,0.0104248,0.0148926
8043,958,-2564,824,-2309,0.00968018,0.0227112,0.0100525,0.0104248
8236,980,-2628,843,-2370,0.0100525,0.0223389,0.0115417,0.0122864
8440,1003,-2691,863,-2427,0.0100525,0.0227112,0.0119141,0.0148926
8628,1023,-2751,883,-2483,0.0111694,0.018988,0.0107971,0.0145203
8816,1045,-2812,902,-2535,0.0078186,0.0230835,0.0119141,0.0111694
9005,1068,-2873,920,-2589,0.00893555,0.0230835,0.0111694,0.0078186
10170,1068,-2873,920,-2589,0.00819092,0.018988,0.00893555,0.0148926
10359,1223,-3308,1058,-2983,0.00893555,0.0238281,0.0100525,0.0174988
10551,1244,-3369,1077,-3038,0.00893555,0.0223389,0.0111694,0.0137756
10742,1266,-3431,1097,-3093,0.00968018,0.0230835,0.00707397,0.0115417
10932,1288,-3493,1117,-3149,0.0078186,0.0186157,0.00968018,0.0145203
11120,1309,-3555,1136,-3203,0.00558472,0.0208496,0.0107971,0.0156372
11314,1332,-3617,1155,-3256,0.0104248,0.0219666,0.0119141,0.0156372
11517,1353,-3681,1175,-3312,0.00744629,0.018988,0.0119141,0.0107971
11705,1374,-3744,1195,-3369,0.0078186,0.0208496,0.0148926,0.0141479
11893,1400,-3803,1214,-3424,0.00670166,0.0197327,0.0137756,0.0141479
12081,1420,-3862,1231,-3478,0.00744629,0.0230835,0.0111694,0.0148926
12269,1439,-3921,1249,-3532,0.00819092,0.0227112,0.0100525,0.013031
12457,1461,-3982,1269,-3587,0.00968018,0.0215942,0.0119141,0.0160095
12658,1485,-4045,1289,-3644,0.00819092,0.0193604,0.0122864,0.0119141
12847,1504,-4106,1309,-3697,0.00744629,0.0186157,0.0122864,0.0167542
13037,1529,-4166,1328,-3752,0.0104248,0.0197327,0.0111694,0.0137756
13228,1552,-4225,1346,-3805,0.0111694,0.0208496,0.0115417,0.0141479
13419,1576,-4286,1365,-3861,0.0100525,0.0227112,0.00968018,0.0119141
13608,1599,-4346,1384,-3915,0.00670166,0.0186157,0.0122864,0.0115417
13796,1617,-4405,1402,-3969,0.00670166,0.0193604,0.013031,0.0160095
13983,1641,-4465,1419,-4025,0.00819092,0.0227112,0.0107971,0.0160095
14172,1661,-4523,1437,-4080,0.00930786,0.0227112,0.0104248,0.0156372
14359,1681,-4584,1454,-4134,0.0104248,0.0215942,0.0111694,0.0156372
14554,1701,-4645,1473,-4187,0.00930786,0.0212219,0.0119141,0.0145203
14743,1721,-4706,1492,-4241,0.00893555,0.0174988,0.0126587,0.0141479
14932,1743,-4765,1511,-4296,0.0100525,0.0215942,0.0141479,0.0160095
15120,1764,-4823,1529,-4353,0.0111694,0.0204773,0.0126587,0.0111694
15311,1786,-4881,1548,-4407,0.0104248,0.0174988,0.0141479,0.0156372
15499,1807,-4942,1566,-4464,0.00707397,0.0204773,0.0104248,0.0156372
15689,1829,-5000,1584,-4520,0.0100525,0.0167542,0.00930786,0.0137756
15882,1851,-5060,1602,-4575,0.00968018,0.0178711,0.0111694,0.0160095
16073,1874,-5122,1622,-4632,0.00856323,0.0204773,0.0126587,0.0148926
16262,1896,-5184,1643,-4686,0.00670166,0.0234558,0.0107971,0.0152649
16450,1919,-5244,1663,-4739,0.00744629,0.0193604,0.0148926,0.0137756
16638,1941,-5305,1681,-4792,0.00484009,0.0178711,0.0107971,0.0141479
16826,1963,-5365,1700,-4845,0.00930786,0.0215942,0.0119141,0.0141479
17016,1986,-5423,1718,-4899,0.00893555,0.0208496,0.0107971,0.0115417
17209,2010,-5481,1737,-4953,0.0104248,0.0212219,0.0111694,0.0167542
17397,2030,-5540,1756,-5009,0.0078186,0.0178711,0.0119141,0.0148926
17584,2049,-5598,1776,-5063,0.00744629,0.0238281,0.00968018,0.0156372
17772,2070,-5657,1795,-5118,0.0111694,0.0197327,0.0107971,0.0152649
17960,2090,-5716,1814,-5171,0.00893555,0.0197327,0.0104248,0.0115417
18148,2111,-5774,1834,-5225,0.0115417,0.0208496,0.0100525,0.0145203
18340,2132,-5831,1853,-5279,0.00707397,0.0204773,0.0104248,0.0145203
18529,2152,-5890,1873,-5336,0.0119141,0.0227112,0.00968018,0.0107971
18720,2173,-5948,1893,-5390,0.00744629,0.0186157,0.0111694,0.0104248
18908,2194,-6005,1913,-5447,0.0078186,0.0215942,0.0100525,0.0145203
19096,2215,-6062,1931,-5501,0.00632935,0.0193604,0.0134033,0.0148926
19284,2237,-6120,1949,-5556,0.0078186,0.0234558,0.0111694,0.0141479
19473,2259,-6179,1968,-5611,0.00707397,0.0238281,0.0115417,0.0141479
19662,2279,-6238,1986,-5666,0.00856323,0.0223389,0.013031,0.0119141
19852,2300,-6298,2006,-5720,0.0100525,0.0208496,0.00968018,0.0115417
20044,2323,-6355,2024,-5773,0.00595703,0.0208496,0.00856323,0.0152649
20234,2346,-6415,2043,-5829,0.00670166,0.0215942,0.0111694,0.0171265
20422,2368,-6473,2061,-5885,0.0100525,0.0208496,0.00893555,0.0163818
20610,2391,-6530,2079,-5939,0.0078186,0.0174988,0.0111694,0.0152649
20800,2414,-6588,2097,-5994,0.0052124,0.0223389,0.0107971,0.0126587
20992,2435,-6647,2116,-6049,0.00819092,0.0215942,0.0141479,0.0107971
21186,2458,-6706,2134,-6108,0.00744629,0.0219666,0.0134033,0.0148926
21374,2481,-6765,2155,-6164,0.00819092,0.0204773,0.0111694,0.0122864
21562,2502,-6825,2174,-6219,0.0115417,0.0178711,0.0115417,0.0119141
21750,2524,-6882,2193,-6274,0.00632935,0.0197327,0.0122864,0.0160095
21943,2546,-6941,2214,-6328,0.0078186,0.0215942,0.0111694,0.0167542
22135,2568,-6999,2235,-6381,0.00893555,0.0171265,0.0137756,0.0152649
22352,2590,-7057,2253,-6436,0.00819092,0.0174988,0.0122864,0.0152649
22541,2615,-7124,2273,-6498,0.0104248,0.0163818,0.0104248,0.0145203
22734,2637,-7182,2290,-6553,0.00856323,0.0223389,0.0141479,0.0152649
22926,2660,-7242,2310,-6609,0.00968018,0.0227112,0.013031,0.0160095
23117,2682,-7303,2329,-6666,0.0104248,0.0223389,0.0145203,0.0152649
23308,2704,-7362,2348,-6719,0.0078186,0.0223389,0.0115417,0.0174988
23497,2725,-7421,2367,-6774,0.00744629,0.0212219,0.0107971,0.0160095
23694,2747,-7479,2386,-6827,0.00856323,0.018988,0.0100525,0.013031
23883,2769,-7539,2406,-6887,0.00670166,0.0174988,0.0134033,0.0100525
24074,2789,-7595,2424,-6940,0.0107971,0.0223389,0.0107971,0.0174988
24263,2810,-7654,2442,-6995,0.00372314,0.0178711,0.0134033,0.0156372
24455,2832,-7713,2460,-7052,0.0104248,0.018988,0.0145203,0.0137756
24643,2852,-7770,2478,-7108,0.0078186,0.020105,0.0100525,0.0163818
24834,2872,-7829,2495,-7164,0.00819092,0.0219666,0.0119141,0.0167542
25021,2893,-7887,2514,-7221,0.00893555,0.0178711,0.00930786,0.00893555
25209,2913,-7944,2532,-7276,0.00893555,0.0215942,0.0148926,0.0148926
25398,2932,-8000,2550,-7331,0.00856323,0.0178711,0.0137756,0.0160095
25589,2954,-8058,2568,-7384,0.00558472,0.0219666,0.0137756,0.0160095
25777,2975,-8116,2587,-7439,0.00819092,0.0215942,0.013031,0.0156372
25969,2998,-8174,2605,-7494,0.00670166,0.018988,0.0119141,0.0115417
26157,3020,-8233,2623,-7552,0.00484009,0.018988,0.00819092,0.0160095
26364,3043,-8292,2642,-7607,0.0100525,0.0223389,0.00930786,0.0160095
26554,3066,-8357,2663,-7668,0.00819092,0.0227112,0.0115417,0.0122864
26743,3087,-8417,2683,-7725,0.0111694,0.0227112,0.0119141,0.0119141
26942,3109,-8477,2702,-7780,0.00707397,0.0174988,0.0119141,0.0145203
27130,3132,-8537,2722,-7840,0.00968018,0.0208496,0.013031,0.0160095
27320,3155,-8594,2742,-7897,0.0100525,0.0212219,0.0115417,0.0156372
27509,3175,-8650,2761,-7953,0.00968018,0.0171265,0.0107971,0.0111694
27702,3196,-8706,2782,-8007,0.0100525,0.0182434,0.00930786,0.0156372
27891,3216,-8767,2799,-8061,0.00819092,0.018988,0.0122864,0.0107971
28082,3237,-8828,2818,-8115,0.00632935,0.0174988,0.0119141,0.0107971
28272,3256,-8887,2836,-8170,0.00856323,0.018988,0.0126587,0.0163818
28468,3276,-8947,2854,-8226,0.0078186,0.0163818,0.0115417,0.0119141
28662,3296,-9007,2872,-8283,0.00968018,0.0227112,0.0137756,0.0148926
28850,3316,-9065,2890,-8337,0.00893555,0.0219666,0.0137756,0.0167542
29041,3337,-9123,2908,-8394,0.00595703,0.0174988,0.0134033,0.0148926
29229,3359,-9182,2925,-8449,0.0107971,0.0178711,0.00856323,0.0156372
29416,3382,-9240,2944,-8504,0.00968018,0.0204773,0.0119141,0.0160095
29605,3404,-9298,2961,-8555,0.00632935,0.0223389,0.00930786,0.0163818
29794,3425,-9356,2978,-8611,0.00856323,0.0193604,0.00856323,0.0152649
29982,3448,-9416,2998,-8665,0.00372314,0.0186157,0.0119141,0.0174988
30170,3468,-9475,3017,-8718,0.00446777,0.0215942,0.0137756,0.0160095
30358,3491,-9534,3036,-8774,0.00893555,0.0223389,0.013031,0.0160095
30548,3512,-9592,3055,-8827,0.00893555,0.0227112,0.00856323,0.0115417
30737,3538,-9650,3075,-8883,0.00819092,0.0234558,0.0122864,0.0148926
30927,3560,-9706,3092,-8937,0.00968018,0.0204773,0.00707397,0.0115417
31118,3581,-9767,3113,-8990,0.00968018,0.0227112,0.0111694,0.0160095
31307,3605,-9826,3132,-9045,0.00930786,0.0208496,0.0115417,0.0100525
31498,3628,-9886,3155,-9099,0.0107971,0.0212219,0.0107971,0.00893555
31686,3647,-9901,3171,-9155,0.00968018,0.0197327,0.0100525,0.0156372
31874,3667,-9901,3186,-9210,0.0078186,0.0204773,0.0122864,0.0148926
32064,3687,-9902,3207,-9263,0.00595703,0.0223389,0.0137756,0.0107971
32257,3708,-9902,3225,-9320,0.0107971,0.0215942,0.00968018,0.0148926
32450,3731,-9902,3244,-9377,0.0107971,0.0193604,0.0100525,0.0152649
32639,3753,-9902,3263,-9435,0.00968018,0.0215942,0.0122864,0.0111694
32833,3775,-9902,3282,-9489,0.00670166,0.0215942,0.0122864,0.0141479
33021,3796,-9902,3302,-9545,0.00968018,0.0219666,0.0119141,0.0160095
33210,3819,-9902,3321,-9597,0.0104248,0.0208496,0.0126587,0.0160095
33399,3841,-9902,3340,-9651,0.00595703,0.0204773,0.0137756,0.0156372
33589,3864,-9902,3361,-9704,0.0111694,0.0204773,0.0111694,0.0145203
33779,3886,-9902,3382,-9760,0.0100525,0.0212219,0.0115417,0.0174988
33967,3907,-9902,3401,-9816,0.00893555,0.0215942,0.00893555,0.0152649
34155,3927,-9902,3420,-9872,0.00930786,0.0219666,0.0126587,0.0141479
34343,3949,-9902,3439,-9891,0.0115417,0.0215942,0.0111694,0.0141479
34533,3971,-9902,3458,-9891,0.00707397,0.018988,0.0111694,0.0160095
34724,3994,-9902,3478,-9891,0.0100525,0.0212219,0.0126587,0.0148926
34914,4019,-9902,3496,-9891,0.00856323,0.0182434,0.0115417,0.0134033
35105,4038,-9902,3513,-9891,0.00930786,0.0215942,0.00930786,0.0122864
35292,4061,-9902,3532,-9891,0.00893555,0.0197327,0.013031,0.0152649
35484,4085,-9902,3551,-9891,0.00670166,0.0212219,0.0100525,0.0141479
35674,4106,-9902,3570,-9891,0.0100525,0.0212219,0.0107971,0.0156372
35866,4125,-9902,3589,-9891,0.00893555,0.0212219,0.0119141,0.0156372
36055,4146,-9902,3607,-9891,0.00856323,0.0215942,0.0115417,0.0134033
36256,4170,-9902,3625,-9891,0.00744629,0.0212219,0.0126587,0.0148926
36449,4193,-9902,3644,-9891,0.0100525,0.0215942,0.00893555,0.0152649
36641,4216,-9902,3664,-9891,0.00930786,0.0227112,0.0107971,0.0145203
36829,4239,-9902,3684,-9891,0.00632935,0.0212219,0.0111694,0.0137756
37022,4260,-9902,3702,-9891,0.0119141,0.0197327,0.013031,0.0141479
37210,4279,-9902,3721,-9891,0.00670166,0.0215942,0.0111694,0.0141479
37403,4301,-9902,3740,-9891,0.00930786,0.0215942,0.00819092,0.0134033
37594,4322,-9902,3760,-9891,0.00632935,0.0197327,0.0126587,0.0145203
37782,4344,-9902,3779,-9891,0.0100525,0.0204773,0.0119141,0.0141479
37971,4365,-9902,3798,-9891,0.00930786,0.0204773,0.0104248,0.013031
38158,4387,-9902,3817,-9891,0.00670166,0.0227112,0.0126587,0.0134033
38347,4409,-9902,3836,-9891,0.00893555,0.0212219,0.00707397,0.0137756
38539,4430,-9902,3855,-9891,0.00558472,0.020105,0.0119141,0.0156372
38729,4451,-9902,3875,-9891,0.00893555,0.0186157,0.0119141,0.0163818
38917,4471,-9902,3895,-9891,0.0122864,0.020105,0.0134033,0.0141479
39108,4492,-9902,3914,-9891,0.00819092,0.020105,0.0126587,0.0152649
39296,4514,-9902,3935,-9891,0.00595703,0.018988,0.0134033,0.0156372
39522,4535,-9902,3953,-9891,0.00744629,0.0193604,0.0122864,0.0134033
39713,4561,-9902,3977,-9891,0.00670166,0.0208496,0.013031,0.013031
39901,4584,-9902,3996,-9891,0.00968018,0.0212219,0.0134033,0.0148926
40092,4607,-9902,4016,-9891,0.00893555,0.0219666,0.00930786,0.0152649
40279,4629,-9902,4036,-9891,0.00968018,0.0219666,0.0141479,0.0160095
40468,4652,-9902,4055,-9891,0.0078186,0.0219666,0.0126587,0.0141479
40659,4675,-9902,4074,-9891,0.00558472,0.0208496,0.0122864,0.0145203
40847,4697,-9902,4094,-9891,0.0100525,0.0215942,0.00893555,0.0141479
41034,4721,-9902,4112,-9891,0.0119141,0.020105,0.00930786,0.0141479
41223,4743,-9902,4131,-9891,0.00968018,0.0204773,0.0122864,0.0148926
41411,4766,-9902,4151,-9891,0.00632935,0.0223389,0.0134033,0.0141479
41598,4788,-9902,4170,-9891,0.00930786,0.0193604,0.0122864,0.0134033
41789,4807,-9902,4188,-9891,0.0100525,0.0212219,0.0137756,0.0122864
41987,4828,-9902,4208,-9891,0.0100525,0.0223389,0.0078186,0.0134033
42178,4851,-9902,4228,-9891,0.00558472,0.020105,0.0126587,0.013031
42366,4873,-9902,4247,-9891,0.00819092,0.0215942,0.0119141,0.0145203
42554,4896,-9902,4265,-9891,0.0115417,0.0227112,0.0111694,0.0126587
42744,4918,-9902,4284,-9891,0.0100525,0.0197327,0.0115417,0.0156372
42932,4940,-9902,4304,-9891,0.00744629,0.0212219,0.0078186,0.0126587
43121,4963,-9902,4323,-9891,0.0107971,0.0204773,0.0078186,0.0141479
43310,4982,-9902,4343,-9891,0.00744629,0.0204773,0.0134033,0.0126587
43500,5003,-9902,4363,-9891,0.00819092,0.0197327,0.0122864,0.0134033
43688,5025,-9902,4383,-9891,0.0115417,0.0212219,0.0137756,0.0145203
43877,5047,-9902,4403,-9891,0.0052124,0.0193604,0.0122864,0.0137756
44068,5069,-9902,4421,-9891,0.0078186,0.0208496,0.0122864,0.0137756
44258,5091,-9902,4441,-9891,0.00670166,0.0204773,0.0119141,0.013031
44446,5113,-9902,4460,-9891,0.00558472,0.0219666,0.00968018,0.013031
44656,5135,-9902,4478,-9891,0.00595703,0.0197327,0.0122864,0.0126587
44845,5160,-9902,4499,-9891,0.00930786,0.020105,0.0104248,0.0134033
45036,5181,-9902,4516,-9891,0.00707397,0.0223389,0.0137756,0.0160095
45227,5202,-9902,4534,-9891,0.00893555,0.0193604,0.0078186,0.0145203
45420,5223,-9902,4551,-9891,0.0052124,0.0182434,0.00968018,0.0141479
45609,5244,-9902,4570,-9891,0.0122864,0.0204773,0.013031,0.0137756
45798,5266,-9902,4589,-9891,0.0078186,0.020105,0.0126587,0.0126587
45988,5288,-9902,4609,-9891,0.00819092,0.0208496,0.00856323,0.0148926
46177,5309,-9902,4628,-9891,0.0111694,0.0212219,0.00968018,0.0134033
46365,5330,-9902,4647,-9891,0.00595703,0.0208496,0.0100525,0.0156372
46554,5352,-9902,4666,-9891,0.00893555,0.0204773,0.013031,0.0148926
46741,5374,-9902,4685,-9891,0.00930786,0.0193604,0.0141479,0.0137756
46932,5395,-9902,4704,-9891,0.00670166,0.0182434,0.0137756,0.0137756
47121,5417,-9902,4724,-9891,0.00744629,0.020105,0.0104248,0.0145203
47311,5439,-9902,4743,-9891,0.00670166,0.0212219,0.0111694,0.013031
47499,5460,-9902,4763,-9891,0.0107971,0.0193604,0.0115417,0.0137756
47692,5481,-9902,4782,-9891,0.00856323,0.0212219,0.0145203,0.0141479
47884,5505,-9902,4803,-9891,0.00335083,0.0219666,0.00893555,0.0134033
48073,5526,-9902,4820,-9891,0.0100525,0.0212219,0.0122864,0.0163818
48263,5548,-9902,4839,-9891,0.0078186,0.020105,0.0141479,0.0145203
48452,5571,-9902,4859,-9891,0.00856323,0.0212219,0.0115417,0.0141479
48643,5593,-9902,4880,-9891,0.00632935,0.0208496,0.0141479,0.0134033
48831,5616,-9902,4897,-9891,0.0078186,0.0208496,0.00856323,0.0156372
49020,5639,-9902,4917,-9891,0.0104248,0.0208496,0.0126587,0.0145203
49208,5662,-9902,4938,-9891,0.00968018,0.0197327,0.00819092,0.0145203
49395,5682,-9902,4959,-9891,0.0052124,0.0182434,0.0137756,0.013031
49587,5705,-9902,4980,-9891,0.00930786,0.0227112,0.013031,0.0134033
49777,5728,-9902,4997,-9891,0.00670166,0.0230835,0.013031,0.0126587
49966,5748,-9902,5015,-9891,0.00744629,0.018988,0.013031,0.0137756
50160,5771,-9902,5034,-9891,0.00707397,0.0204773,0.0126587,0.0148926
50348,5794,-9902,5052,-9891,0.00744629,0.0204773,0.0115417,0.0141479
50538,5816,-9902,5071,-9891,0.00484009,0.020105,0.013031,0.0148926
50733,5838,-9902,5089,-9891,0.0078186,0.0204773,0.00968018,0.0141479
50921,5861,-9902,5108,-9891,0.0078186,0.0208496,0.0115417,0.0141479
51110,5882,-9902,5126,-9891,0.0078186,0.020105,0.00968018,0.0126587
51298,5904,-9902,5145,-9891,0.0104248,0.020105,0.00893555,0.0145203
51488,5925,-9902,5164,-9891,0.00819092,0.0182434,0.0137756,0.0134033
51676,5947,-9902,5183,-9891,0.0100525,0.0193604,0.0104248,0.013031
51868,5968,-9902,5202,-9891,0.0107971,0.020105,0.0119141,0.0137756
52055,5990,-9902,5220,-9891,0.00595703,0.0219666,0.0145203,0.0119141
52246,6012,-9902,5239,-9891,0.00930786,0.0219666,0.0100525,0.0126587
52434,6034,-9902,5258,-9891,0.0119141,0.0208496,0.00893555,0.013031
52623,6054,-9902,5277,-9891,0.0119141,0.0212219,0.00893555,0.0145203
52823,6075,-9902,5296,-9891,0.0107971,0.0223389,0.00968018,0.0141479
53010,6097,-9902,5313,-9891,0.0078186,0.0193604,0.0111694,0.0137756
53202,6118,-9902,5330,-9891,0.00930786,0.0215942,0.0119141,0.013031
53391,6140,-9902,5348,-9891,0.00893555,0.0182434,0.0100525,0.0148926
53589,6160,-9902,5367,-9891,0.00856323,0.0215942,0.0115417,0.0122864
53777,6182,-9902,5385,-9891,0.00670166,0.0174988,0.0148926,0.0141479
53965,6204,-9902,5404,-9891,0.00707397,0.020105,0.0115417,0.0134033
54159,6226,-9902,5424,-9891,0.00707397,0.0212219,0.0104248,0.0134033
54347,6246,-9902,5441,-9891,0.00856323,0.0197327,0.0115417,0.0122864
54541,6266,-9902,5460,-9891,0.0100525,0.0204773,0.0115417,0.0163818
54729,6290,-9902,5481,-9891,0.00632935,0.020105,0.00930786,0.0137756
54917,6310,-9902,5498,-9891,0.00893555,0.0197327,0.0104248,0.0137756
55108,6333,-9902,5516,-9891,0.0104248,0.0197327,0.00930786,0.0141479
55296,6355,-9902,5533,-9891,0.00632935,0.0204773,0.0115417,0.013031
55486,6378,-9902,5553,-9891,0.00930786,0.0197327,0.0107971,0.0126587
55675,6400,-9902,5571,-9891,0.0100525,0.0197327,0.0078186,0.0122864
55873,6422,-9902,5588,-9891,0.00632935,0.0219666,0.00968018,0.0145203
