Target speed left front (rev/min): 6.5
Target speed left back (rev/min): 6.5
Target speed right front (rev/min): 5.5
Target speed right back (rev/min): 6
Target pos left (rev): 2
Target pos right (rev): 2
Data format: <time in ms since beginning>,<position ticks FL>,<position ticks FR>,<position ticks RL>,<position ticks RR>,<current mA FL>,<current mA FR>,<current mA RL>,<current mA RR>
192,16,-102,0,-33,0.00372314,0.0249451,0.00707397,0.013031
386,166,-228,144,-173,0.0145203,0.0316467,0.0078186,0.013031
582,439,-497,415,-436,-0.0134033,0.0305298,-0.0126587,0.013031
778,725,-780,694,-741,0.00595703,0.0282959,0.00595703,0.013031
973,953,-1020,910,-983,0.00670166,0.0275513,0.00484009,0.013031
1170,1174,-1257,1133,-1219,0.00632935,0.0219666,0.00707397,0.013031
1365,1434,-1520,1395,-1488,0.00707397,0.0279236,0.00670166,0.013031
1560,1689,-1775,1653,-1752,-0.00111694,0.0245728,-0.00409546,0.013031
1752,1935,-2021,1901,-2000,0.0078186,0.033136,-0.00409546,0.013031
1943,2165,-2263,2132,-2249,0.00707397,0.0245728,0.00670166,0.013031
2135,2406,-2513,2369,-2501,0,0.0234558,-0.00148926,0.013031
2326,2655,-2761,2617,-2756,-0.00484009,0.0242004,-0.000744629,0.013031
2521,2900,-3004,2867,-3008,0.00484009,0.0215942,-0.00670166,0.013031
2710,3139,-3253,3111,-3259,0.00148926,0.0230835,-0.00223389,0.013031
2904,3373,-3497,3345,-3511,0.00484009,0.0204773,0.00484009,0.013031
3098,3622,-3746,3590,-3769,0.000372314,0.020105,0.00670166,0.013031
3288,3871,-3995,3837,-4020,-0.00223389,0.027179,0.00111694,0.013031
3478,4109,-4239,4076,-4273,0.000372314,0.0245728,0.0126587,0.013031
3670,4349,-4483,4314,-4526,0.00111694,0.0256897,0.00595703,0.013031
3859,4591,-4729,4553,-4781,-0.00335083,0.0297852,-0.00111694,0.013031
4049,4831,-4971,4791,-5026,0.00409546,0.0242004,0.00632935,0.013031
4238,5066,-5215,5030,-5278,-0.000372314,0.0227112,0.00670166,0.013031
4429,5309,-5461,5272,-5532,0.000744629,0.0275513,0.00707397,0.013031
4621,5549,-5704,5512,-5783,0.00484009,0.0256897,0.00632935,0.013031
4811,5784,-5949,5753,-6036,-0.00223389,0.0253174,0.00707397,0.013031
5001,6026,-6193,5990,-6287,0.00148926,0.0279236,0.00148926,0.013031
5190,6257,-6434,6223,-6530,0.000744629,0.0167542,0.000372314,0.013031
5382,6503,-6677,6467,-6780,0.00111694,0.026062,0.00819092,0.013031
5572,6755,-6923,6709,-7032,0.00484009,0.0256897,0.00409546,0.013031
5761,6983,-7167,6946,-7287,0.00856323,0.027179,0.0152649,0.013031
5950,7222,-7408,7186,-7538,0.00372314,0.0297852,0.00111694,0.013031
6142,7463,-7650,7425,-7785,0.00409546,0.0227112,0.000744629,0.013031
6332,7705,-7897,7668,-8041,0.00409546,0.027179,0.00484009,0.013031
6521,7945,-8139,7903,-8286,-0.00186157,0.0294128,0.00409546,0.013031
6713,8182,-8380,8141,-8538,0.000372314,0.0245728,0.00632935,0.013031
6903,8425,-8626,8382,-8791,0.0026062,0.0279236,0.00632935,0.013031
7092,8664,-8865,8622,-9038,-0.00148926,0.018988,0.00335083,0.013031
7284,8902,-9109,8858,-9284,0.000372314,0.0230835,0.000744629,0.013031
7473,9144,-9351,9101,-9538,-0.00111694,0.0215942,0.00111694,0.013031
7663,9383,-9593,9335,-9794,-0.000372314,0.0279236,0.00335083,0.013031
7852,9622,-9835,9574,-10041,0.0111694,0.0279236,0.00632935,0.013031
8041,9860,-10077,9812,-10294,0.00148926,0.0204773,0.00744629,0.013031
8230,10096,-10317,10048,-10542,0.0026062,0.026062,0.00372314,0.013031
8418,10335,-10558,10284,-10790,0.00223389,0.0256897,0.00186157,0.013031
8611,10573,-10799,10524,-11037,0.00223389,0.0238281,0.00558472,0.013031
8805,10818,-11047,10768,-11296,0.00372314,0.0238281,0.00223389,0.013031
8994,11059,-11291,11014,-11547,0.00744629,0.0238281,0.00372314,0.013031
9183,11298,-11532,11248,-11796,0.000372314,0.0238281,0.000372314,0.013031
9373,11535,-11772,11487,-12043,0.00632935,0.0234558,-0.00148926,0.013031
9562,11775,-12015,11727,-12292,0.00223389,0.0294128,0.00558472,0.013031
9752,12013,-12256,11961,-12540,0.00372314,0.0245728,0.00632935,0.013031
9943,12252,-12496,12201,-12789,0.00372314,0.027179,-0.00111694,0.013031
10136,12494,-12742,12441,-13041,0,0.0294128,0.00372314,0.013031
10326,12735,-12987,12688,-13290,0,0.0208496,0.00297852,0.013031
10519,12973,-13226,12924,-13539,0.00223389,0.0223389,0.00856323,0.013031
10712,13217,-13470,13168,-13791,0.00446777,0.0204773,0.00819092,0.013031
10904,13463,-13720,13415,-14047,0.00111694,0.0253174,0.00335083,0.013031
11093,13701,-13959,13651,-14296,0.00558472,0.0212219,0.0026062,0.013031
11283,13938,-14201,13889,-14543,0.00595703,0.0234558,0.00930786,0.013031
11474,14179,-14442,14129,-14794,0.0052124,0.0215942,0.00297852,0.013031
11664,14420,-14683,14372,-15044,0.00446777,0.032019,0.00558472,0.013031
11865,14658,-14920,14611,-15294,0.00632935,0.0256897,0.00372314,0.013031
12054,14911,-15177,14864,-15561,0.00595703,0.0279236,0.00558472,0.013031
12243,15151,-15419,15098,-15813,0.00595703,0.0215942,0.00670166,0.013031
12432,15384,-15652,15337,-16064,0.0026062,0.0275513,0.00558472,0.013031
12621,15626,-15894,15572,-16317,-0.00223389,0.0268066,0.00632935,0.013031
12816,15869,-16135,15793,-16565,0.00297852,0.0238281,0.00670166,0.013031
13009,16117,-16382,16045,-16823,0.0052124,0.020105,0.00186157,0.013031
13206,16353,-16624,16287,-17074,-0.00297852,0.0193604,0.000744629,0.013031
13397,16605,-16876,16536,-17335,0.00484009,0.0234558,0.00707397,0.013031
13586,16847,-17117,16771,-17586,0.0163818,0.0204773,0.00707397,0.013031
13777,17084,-17356,17010,-17834,0.00558472,0.026062,0,0.013031
13971,17325,-17597,17249,-18085,0.000744629,0.0215942,0.00335083,0.013031
14159,17568,-17842,17496,-18338,-0.000372314,0.0256897,0.00111694,0.013031
14348,17807,-18080,17731,-18587,-0.000744629,0.0256897,0.0052124,0.013031
14539,18044,-18318,17969,-18834,0.00297852,0.0279236,-0.000372314,0.013031
14729,18284,-18560,18209,-19086,0.00148926,0.020105,-0.00223389,0.013031
14919,18526,-18801,18449,-19336,0.00409546,0.0264343,0.00297852,0.013031
15107,18762,-19039,18688,-19584,0.00595703,0.0219666,-0.00335083,0.013031
15299,19002,-19280,18928,-19833,0.0026062,0.0275513,0.00372314,0.013031
15488,19243,-19516,19169,-19920,0.00670166,0.0264343,0.00632935,0.013031
15680,19479,-19755,19405,-19920,-0.00186157,0.0212219,0.00707397,0.013031
15869,19722,-19931,19648,-19920,0.00484009,0.0279236,0.00670166,0.013031
16060,19924,-19931,19885,-19920,0.00632935,0.0279236,0.0052124,0.013031
16249,19926,-19931,19952,-19920,0.00484009,0.027179,0.00670166,0.013031
16440,19926,-19931,19949,-19920,0.00372314,0.027179,0.0052124,0.013031
16637,19926,-19931,19949,-19920,0.00595703,0.0286682,0.00744629,0.013031
16802,19926,-19931,19949,-19920,0.00558472,0.0275513,0.00595703,0.013031
