Target speed left (rev/min): 10
Target speed right (rev/min): 10
Target pos left (rev): 1
Target pos right (rev): 1
Data format: <time in ms since beginning>,<position ticks FL>,<position ticks FR>,<position ticks RL>,<position ticks RR>,<current mA FL>,<current mA FR>,<current mA RL>,<current mA RR>
112,0,0,2,1,0.0171265,0.0446777,0.0223389,0
203,22,26,58,93,0.0193604,0.0416992,0.0156372,0.0126587
302,104,103,144,181,0.0052124,0.0372314,0.0163818,-0.00595703
398,193,159,217,253,0.00819092,0.0439331,0.0253174,0.0148926
506,266,218,295,343,0.0126587,0.0469116,0.0238281,0.0163818
605,362,290,381,433,0.0156372,0.0424438,0.00968018,0.00223389
704,444,352,461,521,0.000744629,0.0416992,0.0253174,0.00595703
798,526,415,539,603,0.00148926,0.0305298,0.0126587,0.0156372
911,616,481,625,693,0.0171265,0.0424438,0.0186157,0.0163818
1023,697,542,682,777,0.00670166,0.0439331,-0.0052124,0.0052124
1135,797,618,736,877,0.0126587,0.0312744,0.0186157,0.0163818
1233,885,683,839,969,0.0163818,0.0282959,0.00893555,0.0141479
1331,968,746,907,1052,-0.000744629,0.0469116,0.00595703,-0.00148926
1435,1055,810,995,1141,0.0171265,0.032019,0.0223389,0.0119141
1541,1144,876,1077,1231,0.00744629,0.0327637,0.0238281,0.0156372
1639,1225,937,1156,1314,0.0186157,0.0446777,0.0230835,0.0148926
1739,1309,1000,1236,1399,0.0171265,0.0476562,0.00968018,0.0178711
1852,1397,1066,1321,1489,0.0178711,0.0484009,0.0253174,0.00372314
1951,1484,1130,1405,1578,0.00744629,0.0446777,0.0215942,0.020105
2057,1567,1194,1486,1664,0.00297852,0.0431885,0.026062,0.00297852
2154,1655,1258,1571,1754,0.0148926,0.0469116,0.0119141,0.0156372
2299,1739,1324,1650,1839,0.0148926,0.0416992,0.00670166,0.0126587
2412,1868,1420,1776,1972,0.0052124,0.0335083,0.0230835,0.0171265
2515,1950,1484,1853,2056,0.00595703,0.0446777,0.0245728,0.0148926
2617,2038,1548,1935,2145,0.0178711,0.0476562,0.0223389,-0.00372314
2711,2124,1614,2019,2231,0.0178711,0.0327637,0.0238281,-0.000744629
2811,2205,1675,2093,2314,0.0223389,0.032019,0.026062,0.0141479
2904,2286,1737,2171,2398,0.000744629,0.0305298,0.020105,0.0148926
3011,2362,1794,2245,2474,0.0208496,0.0446777,0.0253174,0.0148926
3104,2452,1863,2332,2567,0.0178711,0.0327637,0.0245728,0.0178711
3208,2527,1919,2403,2644,0.020105,0.0446777,0.00968018,-0.00223389
3310,2613,1983,2486,2731,0,0.0469116,0.0238281,0.0178711
3410,2699,2049,2567,2819,0.00893555,0.0305298,0.0275513,0.0163818
3517,2783,2111,2645,2902,0.0104248,0.046167,0.026062,0.0134033
3632,2872,2181,2731,2994,0.0178711,0.0439331,0.026062,0.0141479
3757,2971,2256,2824,3094,0.0178711,0.0297852,0.0111694,0.0163818
3860,3073,2333,2923,3197,0.0171265,0.0431885,0.0126587,0.0134033
3964,3157,2398,3002,3284,0.0178711,0.0342529,0.0156372,0.00446777
4064,3243,2463,3085,3371,0.00595703,0.0469116,0.0275513,0.0148926
4166,3326,2527,3165,3458,0.0163818,0.0439331,0.00819092,0.00819092
4268,3411,2590,3244,3542,0.0178711,0.0491455,0.0156372,0.00372314
4381,3495,2655,3327,3631,0.0163818,0.046167,0.0223389,0.0119141
4493,3597,2732,3422,3733,0.0186157,0.0469116,0.0245728,0.0193604
4586,3682,2798,3505,3822,0.020105,0.0349976,0.0104248,0.0215942
4708,3772,2866,3590,3912,0.0052124,0.0446777,0.0230835,-0.00148926
4811,3860,2935,3678,4004,0.00148926,0.0431885,0.026062,0.00223389
4908,3948,2997,3760,4093,0.020105,0.0498901,0.0230835,0.0208496
5010,4030,3059,3837,4174,0.0186157,0.0454224,0.00744629,0.0171265
5115,4114,3123,3918,4261,0.0178711,0.0446777,0.0230835,0.0148926
5213,4201,3188,4003,4350,0.0178711,0.0439331,0.0230835,0.00372314
5311,4284,3251,4079,4435,0.0171265,0.0506348,0.00893555,0.00595703
5405,4365,3310,4158,4516,0.0186157,0.0357422,0.0238281,0.0156372
5503,4448,3372,4238,4603,0.0193604,0.0335083,0.0104248,0.00297852
5618,4539,3441,4326,4695,0.0223389,0.0498901,0.00968018,0.0186157
5791,4621,3499,4405,4779,0.0178711,0.0454224,0.0253174,-0.00223389
5884,4766,3608,4541,4927,0.0156372,0.0454224,0.0268066,0.00446777
6009,4849,3671,4623,5010,0.0223389,0.0431885,0.0126587,-0.000744629
6111,4949,3746,4716,5112,0.0238281,0.0446777,0.0230835,0.0186157
6215,5033,3808,4798,5196,0.0186157,0.0484009,0.0104248,0.0052124
6312,5120,3873,4881,5283,0.00968018,0.0484009,0.0253174,0.00968018
6418,5203,3933,4960,5367,0.020105,0.0379761,0.00893555,0.0141479
6521,5290,3998,5044,5455,0.0134033,0.046167,0.0141479,0.0134033
6623,5376,4063,5127,5542,0.0148926,0.0454224,0.0230835,0.0171265
6745,5465,4125,5208,5629,0.00893555,0.0439331,0.0126587,0.020105
6894,5568,4204,5307,5734,0.00670166,0.0491455,0.0238281,0.000744629
6998,5692,4294,5423,5858,0.0193604,0.0454224,0.00670166,-0.00148926
7097,5777,4359,5505,5945,0.0052124,0.0379761,0.0268066,0.0119141
7191,5862,4419,5583,6028,0.0171265,0.0506348,0.0253174,0.0134033
7287,5941,4478,5656,6110,0.0134033,0.0469116,0.0275513,0.0134033
7390,6023,4539,5734,6189,0.020105,0.0491455,0.0253174,0.0156372
7497,6117,4608,5820,6285,0.0215942,0.046167,0.0245728,0.0156372
7593,6199,4672,5899,6368,0.020105,0.0431885,0.0282959,0.0148926
7695,6283,4732,5980,6452,0.00744629,0.0498901,0.0148926,0.0052124
7793,6366,4794,6055,6536,0.00223389,0.0498901,0.0245728,0.00819092
7890,6450,4855,6133,6619,0.00595703,0.0469116,0.0119141,0.000744629
7988,6529,4914,6209,6702,0.00148926,0.0446777,0.0253174,0.0119141
8088,6614,4978,6289,6788,0.0215942,0.0431885,0.0238281,0.00297852
8182,6695,5037,6365,6871,0.0156372,0.0454224,0.0104248,0.0134033
8281,6774,5098,6439,6951,0,0.0454224,0.0156372,0.0163818
8373,6857,5160,6519,7036,0.00819092,0.0424438,0.0141479,0.0171265
8475,6942,5222,6597,7122,0.0156372,0.0268066,0.0230835,0.00446777
8577,7028,5286,6679,7211,0.0156372,0.0387207,0.0111694,0.0052124
8673,7105,5344,6752,7292,0.0238281,0.0446777,0.0238281,-0.00297852
8774,7187,5403,6830,7372,0.00595703,0.0305298,0.0208496,0.00372314
8876,7270,5466,6909,7460,0.0186157,0.0342529,0.0253174,0.0171265
8980,7355,5530,6990,7546,0.0119141,0.0431885,0.0141479,0.0141479
9082,7439,5594,7071,7634,0.0156372,0.0297852,0.0223389,0.020105
9203,7545,5671,7168,7739,0.0215942,0.0476562,0.0275513,0.0119141
9311,7627,5733,7247,7825,0.0171265,0.0454224,0.0245728,0.0148926
9409,7717,5802,7331,7919,0.00670166,0.0439331,0.0275513,0.0148926
9511,7800,5860,7409,8000,0.0134033,0.0491455,0.0230835,0.0148926
9616,7887,5926,7488,8090,0.00744629,0.0446777,0.0253174,0.0111694
9715,7972,5992,7571,8177,0.020105,0.0446777,0.0141479,0.00223389
9819,8056,6052,7648,8260,0.000744629,0.0446777,0.026062,0.0163818
9919,8144,6119,7729,8348,0.0178711,0.0446777,0.0134033,0.0186157
10030,8228,6179,7809,8435,0.0186157,0.0469116,0.0290405,0.0134033
10125,8321,6247,7896,8530,0.00297852,0.0342529,0.0223389,0.0156372
10226,8402,6309,7972,8612,0.0178711,0.0349976,0.0253174,0.0171265
10337,8492,6374,8059,8706,0.00148926,0.0469116,0.0223389,0.0171265
10444,8577,6438,8138,8790,0.0208496,0.0364868,0.026062,0.00297852
10546,8672,6508,8226,8887,0.0223389,0.0446777,0.0275513,0.0163818
10650,8756,6572,8309,8974,0.0163818,0.046167,0.0148926,0.0186157
10752,8843,6636,8386,9062,0.0178711,0.0327637,0.0134033,0.00223389
10863,8925,6698,8464,9146,0.0163818,0.0446777,0.0275513,0.00148926
10957,9017,6766,8550,9240,0.0178711,0.0454224,0.0104248,0.0156372
11054,9097,6825,8624,9320,0.0193604,0.0469116,0.0238281,0.0163818
11151,9176,6886,8701,9401,0.00819092,0.04021,0.0230835,0.0156372
11257,9257,6947,8779,9483,0.0186157,0.0439331,0.00819092,0.0126587
11353,9344,7012,8861,9574,0.0208496,0.0446777,0.0223389,0.0171265
11447,9424,7071,8937,9655,0.0171265,0.0439331,0.0253174,0.0163818
11564,9515,7139,9022,9748,0.0178711,0.0364868,0.0126587,0.00148926
11667,9601,7203,9104,9835,0.0238281,0.046167,0.0245728,0.0126587
11775,9688,7266,9186,9923,0.00819092,0.0446777,0.0253174,0.0186157
11873,9781,7337,9273,9981,0.0178711,0.0506348,0.026062,0.0104248
11986,9865,7398,9352,9957,0.0193604,0.046167,0.00893555,-0.00446777
12098,9952,7465,9435,9982,0.0163818,0.0349976,0.0134033,0.0134033
12207,9968,7536,9526,9956,0.020105,0.046167,0.0253174,0.0148926
12310,9963,7604,9609,9979,0.020105,0.0454224,0.0245728,0.0052124
12405,9976,7669,9690,9966,0.0171265,0.0335083,0.0119141,-0.00148926
12507,9965,7729,9767,9967,0.0208496,0.0364868,0.0245728,0.0156372
12608,9969,7796,9852,9978,0.0193604,0.0394653,0.00819092,0.0193604
12712,9969,7854,9928,9964,0.0156372,0.0431885,0.0268066,0.0134033
12817,9972,7924,9976,9977,0.0178711,0.0469116,0.0253174,0.0163818
12925,9970,7982,9961,9968,0.0208496,0.032019,0.026062,0.00744629
13018,9968,8050,9967,9969,0.0186157,0.0469116,0.0215942,0.0156372
13124,9974,8112,9967,9973,0.0171265,0.046167,0.0208496,0.0148926
13225,9958,8178,9970,9966,0.00670166,0.0349976,0.0156372,0.0141479
13334,9971,8239,9971,9972,0.0119141,0.0454224,0.0268066,0.0119141
13432,9975,8305,9979,9977,0.00148926,0.0416992,0.0238281,0.00670166
13543,9975,8371,9963,9967,0.00148926,0.0312744,0.00670166,0.0126587
13651,9963,8437,9975,9967,0.0178711,0.0349976,0.0171265,0.0119141
13767,9973,8508,9963,9970,0.00148926,0.0409546,0.0156372,0.0134033
13863,9975,8580,9967,9964,0.0178711,0.0312744,0.0253174,0.0156372
13965,9987,8646,9970,9967,0.0178711,0.032019,0.0134033,0.0148926
14068,9953,8709,9964,9975,-0.00148926,0.0469116,0.0230835,0.0163818
14175,9962,8773,9959,9963,0.0134033,0.0335083,0.0178711,0.0156372
14290,9968,8845,9974,9978,0.0171265,0.0416992,0.0238281,0.0163818
14416,9969,8907,9976,9967,0.020105,0.0454224,0.0297852,0.0141479
14535,9974,8989,9958,9970,0.020105,0.0439331,0.0208496,0.0134033
14637,9972,9061,9966,9974,0.0171265,0.0439331,0.0238281,0.0104248
14743,9977,9123,9972,9970,0.0171265,0.0491455,0.0268066,0.00446777
14849,9962,9189,9977,9965,0.020105,0.0469116,0.0104248,0.0186157
14948,9969,9256,9960,9977,0.00893555,0.0469116,0.0253174,0.0141479
15044,9969,9315,9961,9965,0.0178711,0.0469116,0.0238281,0.0156372
15152,9973,9376,9970,9968,0.0178711,0.0446777,0.020105,0.0141479
15266,9970,9447,9972,9973,0.0186157,0.046167,0.0134033,0.0126587
15361,9975,9511,9965,9975,0.00893555,0.0439331,0.026062,0.0171265
15470,9958,9575,9968,9963,0.00595703,0.0454224,0.0238281,0.0134033
15565,9970,9637,9971,9974,0.0148926,0.0305298,0.0215942,0.0171265
15666,9970,9701,9978,9967,0.0208496,0.0335083,0.0230835,0.0134033
15775,9974,9765,9963,9967,0.020105,0.0416992,0.0282959,0.0134033
15877,9963,9828,9971,9974,0.0193604,0.046167,0.026062,0.0141479
15974,9969,9892,9974,9978,0.0126587,0.0424438,0.0215942,0
16075,9974,9955,9963,9966,0.00819092,0.0446777,0.0186157,0.0148926
16178,9975,9961,9963,9968,0.0230835,0.0439331,0.0253174,0.0148926
16280,9985,9950,9970,9973,0.0163818,0.0439331,0.0223389,0.0163818
16373,9960,9955,9975,9979,0.0327637,0.0439331,0.020105,0.0148926
16479,9968,9956,9959,9966,0.0186157,0.0372314,0.0148926,-0.000744629
16576,9974,9961,9966,9969,0.00968018,0.0424438,0.0230835,0.0178711
16678,9973,9949,9973,9971,0.00968018,0.0439331,0.0253174,-0.00148926
16780,9972,9958,9970,9977,0.0178711,0.0454224,0.0253174,0.0148926
16931,9975,9954,9969,9963,0.0163818,0.0424438,0.0238281,0.0111694
17036,9962,9959,9980,9974,0.0186157,0.046167,0.0208496,-0.00148926
17134,9968,9963,9968,9964,0.0171265,0.0372314,0.0268066,0.00595703
17246,9969,9953,9977,9976,0.0305298,0.0446777,0.0245728,0.0119141
17354,9973,9961,9956,9964,0.0208496,0.0372314,0.0245728,0.00744629
17455,9976,9955,9966,9971,0.00595703,0.0439331,0.0268066,-0.00670166
17548,9967,9955,9970,9974,0.00744629,0.0469116,0.0253174,0.0156372
17660,9980,9959,9969,9976,0.0156372,0.0424438,0.026062,0.0104248
17762,9969,9957,9968,9976,0.0223389,0.0610596,0.0193604,0.0134033
17863,9967,9961,9971,9965,0.0141479,0.0439331,0.0238281,0.0156372
17959,9972,9966,9977,9973,0.0134033,0.0446777,0.0141479,-0.00297852
18062,9968,9949,9963,9977,0.0178711,0.0446777,0.0253174,0.0268066
18158,9971,9954,9960,9969,0.0171265,0.0431885,0.026062,0.0148926
18284,9969,9957,9973,9966,0.00819092,0.0372314,0.0178711,0.00968018
18384,9968,9957,9967,9974,0.0193604,0.0439331,0.0364868,0.0119141
18481,9970,9955,9973,9973,0.0171265,0.0476562,0.0253174,0.0156372
18591,9958,9959,9964,9974,0.0141479,0.0469116,0.020105,0.0148926
18693,9974,9959,9963,9963,0.0193604,0.0409546,0.0245728,0.0119141
18799,9976,9964,9968,9976,0.0178711,0.0484009,0.020105,0.00148926
18896,9968,9951,9969,9963,0.0119141,0.0454224,0.026062,0.00595703
18992,9963,9955,9968,9971,0.0171265,0.0364868,0.00744629,0.0126587
19112,9972,9955,9979,9970,0.0163818,0.0431885,0.0268066,0.0253174
19218,9975,9960,9968,9965,0.0171265,0.0484009,0.0245728,0.0126587
19323,9964,9960,9961,9977,0.0178711,0.0454224,0.026062,0.0156372
19417,9964,9960,9969,9965,0.0230835,0.0469116,0.0104248,0.0141479
19514,9970,9960,9975,9968,0.0156372,0.0215942,0.0126587,0.0111694
19612,9976,9949,9958,9969,0.0186157,0.0312744,0.0223389,0.0163818
19715,9960,9955,9963,9971,0.00819092,0.0424438,0.0238281,0.0119141
19810,9967,9957,9974,9972,0.0178711,0.0469116,0.0268066,0.0141479
19904,9975,9962,9976,9963,0.0126587,0.0431885,0.0253174,0.0163818
20004,9961,9957,9963,9973,0.0171265,0.0454224,0.0171265,0.0156372
20103,9963,9954,9962,9973,0.00968018,0.0342529,0.0171265,0.0126587
20212,9973,9961,9966,9971,0.0193604,0.0446777,0.0156372,0.00968018
20332,9964,9954,9972,9965,0.0186157,0.0476562,0.0275513,0.0126587
20438,9966,9953,9978,9975,0.0223389,0.0335083,0.0245728,-0.00297852
20536,9972,9959,9956,9976,0.00819092,0.0394653,0.0215942,0.00819092
20639,9971,9960,9968,9964,0.0193604,0.0424438,0.0238281,0.00744629
20741,9974,9963,9971,9969,0.0193604,0.0394653,0.0245728,0.0156372
20794,9974,9963,9971,9969,0.0193604,0.0394653,0.0245728,0.0156372
