Target speed left (rev/min): 15
Target speed right (rev/min): 15
Target pos left (rev): 1
Target pos right (rev): 1
Data format: <time in ms since beginning>,<position ticks FL>,<position ticks FR>,<position ticks RL>,<position ticks RR>,<current mA FL>,<current mA FR>,<current mA RL>,<current mA RR>
124,0,17,1,38,0.013031,0.0156372,0.0111694,-0.0409546
227,-85,108,-78,95,-0.0282959,0.00856323,-0.00744629,0.0052124
330,-71,-38,-46,-43,0.013031,0.0104248,0.0122864,0.013031
432,7,-151,18,-158,0.00409546,0.0107971,0.0134033,0.0160095
536,101,-296,111,-302,0.0111694,0.013031,0.013031,0.0107971
636,223,-442,235,-444,0.00819092,0.0145203,0.00484009,0.0115417
743,349,-582,362,-580,0.0148926,0.0115417,0.0078186,0.00744629
845,501,-746,515,-741,0.00484009,0.0148926,0.0078186,0.00744629
944,623,-878,638,-869,0.0126587,0.0152649,0.0078186,0.0111694
1066,771,-1038,787,-1025,0.00893555,0.0107971,0.00856323,0.0107971
1180,914,-1192,931,-1176,0.00632935,0.0119141,0.00632935,0.00819092
1286,1063,-1353,1082,-1334,0.0145203,0.00930786,0.00968018,0.00670166
1399,1202,-1503,1222,-1480,0.00819092,0.0167542,0.00335083,0.00893555
1520,1363,-1676,1385,-1648,0.0126587,0.0156372,0.00148926,0.0115417
1680,1525,-1851,1549,-1819,0.00744629,0.0152649,0.00819092,0.00707397
1794,1726,-2066,1751,-2031,0.0141479,0.013031,0.00893555,0.013031
1890,1872,-2224,1897,-2184,0.0119141,0.0160095,0.0122864,0.0104248
1996,1999,-2361,2026,-2318,0.0115417,0.0141479,0.0115417,0.0141479
2098,2139,-2511,2166,-2464,0.0193604,0.013031,0.00632935,0.0122864
2200,2274,-2655,2302,-2606,0.0134033,0.0078186,0.00930786,0.0134033
2316,2410,-2800,2438,-2748,0.00484009,0.0171265,0.013031,0.0145203
2433,2563,-2966,2592,-2910,0.00446777,0.0104248,0.00707397,0.00670166
2526,2719,-3132,2749,-3074,0.0137756,0.0100525,0.00558472,0.0134033
2629,2854,-3277,2884,-3217,0.00744629,0.00893555,0.00632935,0.0141479
2731,2988,-3421,3019,-3358,0.0104248,0.0119141,0.00930786,0.0107971
2830,3124,-3566,3155,-3500,0.020105,0.0100525,0.00595703,0.0100525
2933,3247,-3698,3279,-3631,0.0134033,0.0126587,0.00707397,0.0119141
3036,3383,-3844,3416,-3774,0.00968018,0.013031,0.00670166,0.00819092
3139,3519,-3990,3553,-3917,0.0100525,0.0111694,0.0137756,0.0104248
3240,3669,-4150,3704,-4075,0.0137756,0.00558472,0.00409546,0.0111694
3356,3793,-4283,3828,-4206,0.0134033,0.0160095,0.00632935,0.0122864
3458,3946,-4447,3982,-4368,0.0141479,0.0148926,0.0141479,0.0141479
3560,4083,-4595,4120,-4512,0.0111694,0.0163818,0.00856323,0.00744629
3662,4217,-4738,4254,-4653,0.00707397,0.0171265,0.0145203,0.00819092
3773,4352,-4884,4391,-4797,0.0111694,0.00893555,0.0134033,0.0197327
3900,4499,-5041,4538,-4952,0.00707397,0.0167542,0.0119141,0.0174988
4015,4684,-5238,4724,-5147,0.0134033,0.00893555,0.0163818,0.0137756
4117,4828,-5393,4869,-5299,0.00632935,0.0141479,0.0100525,0.0137756
4216,4957,-5532,4999,-5436,0.0052124,0.00968018,0.00558472,0.00893555
4329,5088,-5672,5132,-5575,0.00670166,0.0137756,0.00335083,0.00632935
4452,5249,-5845,5293,-5745,0.0107971,0.0126587,0.00670166,0.0126587
4557,5403,-6010,5448,-5907,0.00930786,0.00930786,0.0122864,0.00930786
4676,5545,-6161,5590,-6057,0.00819092,0.0107971,0.0107971,0.0145203
5759,5545,-6161,5590,-6057,0.0141479,0.0119141,0.0137756,0.00930786
5859,7144,-7875,7199,-7750,0.00856323,0.00893555,0.00595703,0.00930786
5976,7277,-8019,7334,-7892,0.013031,0.0163818,0.00819092,0.00893555
6086,7440,-8194,7497,-8064,0.00930786,0.0126587,0.0134033,0.00968018
6193,7579,-8343,7637,-8212,0.00968018,0.0126587,0.0134033,0.00968018
6298,7722,-8496,7781,-8363,0.00670166,0.0134033,0.00893555,0.00930786
6400,7862,-8647,7922,-8511,0.00856323,0.00893555,0.0100525,0.00446777
6520,8001,-8796,8062,-8658,0.0122864,0.0182434,0.0126587,0.00968018
6622,8168,-8975,8231,-8835,0.0119141,0.0126587,0.00930786,0.0141479
6732,8305,-9123,8369,-8981,0.0134033,0.0115417,0.00670166,0.0115417
6837,8444,-9272,8508,-9128,0.00968018,0.013031,0.0026062,0.0145203
6930,8581,-9419,8646,-9273,0.0141479,0.0163818,0.00670166,0.0137756
7031,8717,-9565,8783,-9417,0.0134033,0.0171265,0.0111694,0.0148926
7145,8852,-9711,8920,-9561,0.013031,0.00819092,0.0126587,0.0126587
7267,8993,-9861,9061,-9710,0.0100525,0.0107971,0.00446777,0.00856323
7381,9165,-10022,9236,-9893,0.0134033,0.0111694,0.0145203,0.0141479
7501,9326,-10030,9397,-10026,0.0111694,0.0152649,0.013031,0.0141479
7636,9470,-10013,9542,-10034,0.00707397,0.0122864,0.0137756,0.0137756
7731,9647,-9998,9721,-10003,0.0156372,0.0119141,0.00558472,0.0141479
7834,9776,-9996,9852,-9994,0.0134033,0.0160095,0.0052124,0.00819092
7932,9913,-9983,9984,-9992,0.0141479,0.0134033,0.0148926,0.0126587
8101,10011,-9986,10022,-9990,0.0137756,0.00409546,0.0107971,0.0134033
8198,9988,-9979,9982,-9985,0.00930786,0.0137756,0.0134033,0.0107971
8300,9993,-9982,9987,-9978,0.013031,0.00856323,0.00707397,0.0141479
8414,9992,-9981,9992,-9974,0.0126587,0.0104248,0.00632935,0.0148926
8527,9989,-10001,9995,-9973,0.00670166,0.0160095,0.013031,0.00409546
8652,9988,-10004,9984,-9975,0.0126587,0.0137756,0.00893555,0.0145203
8748,9986,-9997,9991,-9978,0.0204773,0.0134033,0.0111694,0.0148926
8846,9990,-9994,9969,-9982,0.00744629,0.0119141,0.00968018,0.0115417
8947,9986,-9991,9964,-9976,0.0134033,0.0141479,0.0052124,0.013031
9077,9991,-9974,9968,-9972,0.013031,0.0163818,0.00968018,0.0145203
9179,9968,-9978,9969,-9971,0.00968018,0.0145203,0.0119141,0.0145203
9283,9965,-9980,9975,-9985,0.00335083,0.0145203,0.0122864,0.00930786
9406,9969,-9982,9991,-9977,0.0078186,0.00819092,0.0126587,0.00670166
9529,9971,-9980,9989,-9978,0.00632935,0.0141479,0.0104248,0.0141479
9646,9976,-9982,9988,-9973,0.0137756,0.0126587,0.0126587,0.0137756
9752,9989,-10003,9986,-9974,0.00856323,0.0137756,0.0137756,0.0152649
9853,9987,-10001,9987,-9977,0.0141479,0.0163818,0.0119141,0.0134033
9976,9991,-9997,9992,-9981,0.0141479,0.0148926,0.0126587,0.0160095
10085,9991,-9991,9994,-9981,0.0111694,0.0152649,0.0100525,0.0148926
10206,9988,-9977,9974,-9980,0.00707397,0.00856323,0.0145203,0.0148926
10309,9983,-9978,9966,-9979,0.0126587,0.0152649,0.0126587,0.0163818
10365,9983,-9978,9966,-9979,0.0126587,0.0152649,0.0126587,0.0163818
