Target speed left (rev/min): 15
Target speed right (rev/min): 15
Target pos left (rev): -1
Target pos right (rev): -1
Data format: <time in ms since beginning>,<position ticks FL>,<position ticks FR>,<position ticks RL>,<position ticks RR>,<current mA FL>,<current mA FR>,<current mA RL>,<current mA RR>
127,1,1,2,-8,0.0141479,-0.0349976,0.0156372,-0.0178711
258,148,-119,103,-78,0.0156372,0.0439331,0.0178711,0.0178711
360,19,-10,-27,18,0.0178711,0.0424438,0.0193604,-0.00372314
464,-80,53,-140,118,0.0156372,0.0409546,0.00372314,0.0528687
565,-210,151,-284,195,0.000744629,0.0364868,0.0193604,-0.00595703
667,-345,255,-421,251,0.00819092,0.0275513,0.00446777,0.00297852
770,-488,364,-565,364,0.0119141,0.0469116,0.0178711,0.0148926
874,-632,475,-710,488,0.0111694,0.0290405,0.0156372,0.0156372
976,-780,590,-858,622,0.0052124,0.04021,0.0156372,0.0178711
1077,-922,701,-1000,753,0.00446777,0.0290405,0.00670166,0.020105
1179,-1064,813,-1143,886,0,0.0431885,0.00223389,0.0186157
1270,-1209,927,-1288,1021,0.00968018,0.04021,-0.00372314,0.00297852
1384,-1351,1041,-1431,1156,0.0104248,0.0424438,0.00670166,0.0163818
1479,-1499,1157,-1579,1295,0.00670166,0.046167,0.0119141,0.00223389
1596,-1641,1270,-1722,1430,0.0052124,0.0409546,-0.00297852,0.0148926
1691,-1799,1395,-1880,1579,0.00148926,0.0416992,0.0238281,0.00968018
1788,-1933,1502,-2016,1707,0,0.0454224,0.0193604,0.0186157
1897,-2079,1618,-2162,1845,0.00372314,0.04021,0.0148926,0.0148926
2000,-2225,1734,-2307,1983,0.00372314,0.0305298,0.0156372,0.0223389
2107,-2372,1852,-2454,2123,0.0163818,0.0275513,0.00595703,0.0186157
2204,-2525,1972,-2606,2268,0.00297852,0.0297852,0.0223389,0.00297852
2307,-2663,2083,-2745,2400,0.0052124,0.0446777,0.00446777,0.0148926
2413,-2808,2198,-2891,2538,0.0156372,0.0446777,0.00223389,0.0163818
2511,-2958,2318,-3042,2681,-0.00297852,0.0342529,0.0156372,0.00670166
2613,-3101,2431,-3186,2816,0.00819092,0.0446777,0.0171265,0.0134033
2715,-3243,2543,-3327,2950,0.00893555,0.0245728,0.00744629,0.00819092
2819,-3388,2658,-3473,3088,0.00297852,0.046167,0.0126587,0.00893555
2920,-3535,2775,-3621,3228,0.0186157,0.0484009,0.0186157,0.020105
3023,-3678,2889,-3765,3364,0.020105,0.0439331,0.0104248,0.0178711
3125,-3823,3005,-3912,3502,0.00297852,0.0290405,0.0156372,0.0126587
3296,-3968,3120,-4058,3639,0.00893555,0.0312744,0.0134033,0.00968018
3436,-4229,3328,-4323,3887,0.00595703,0.0305298,0.00372314,0.0141479
3535,-4408,3471,-4504,4057,0.0193604,0.0297852,0.0148926,0.00968018
3645,-4550,3583,-4647,4190,0.0052124,0.032019,0.0178711,0.00148926
3745,-4706,3708,-4805,4339,0.00446777,0.0349976,0.0141479,0.0141479
3871,-4856,3827,-4956,4480,0.0148926,0.0439331,0.0148926,0.00819092
3982,-5027,3963,-5130,4643,0.0171265,0.0424438,0.00744629,0.0275513
4078,-5182,4089,-5289,4790,0.020105,0.0305298,0.0126587,0.0193604
5174,-5182,4089,-5289,4790,0.0111694,0.0446777,0.0230835,0.0178711
5281,-6886,5443,-7004,6391,0.0119141,0.0335083,0.0245728,0.0178711
5405,-7040,5566,-7160,6534,0.0134033,0.0446777,0.0186157,0.00297852
5507,-7220,5711,-7343,6703,0.00893555,0.046167,0.0119141,0.0148926
5707,-7361,5823,-7486,6836,0.00819092,0.026062,0.0052124,0.0178711
5820,-7648,6052,-7776,7104,0.0148926,0.0536133,0.0186157,0.0141479
5918,-7810,6180,-7939,7254,0.0111694,0.0424438,0.00893555,0.0208496
6019,-7950,6291,-8080,7385,0.00446777,0.0454224,0.00372314,0.0178711
6128,-8095,6406,-8225,7520,0.0148926,0.0431885,0.0171265,0.00744629
6228,-8252,6531,-8383,7666,0.0156372,0.0439331,0.0193604,0.0171265
6327,-8395,6644,-8527,7799,0.0186157,0.0349976,0.020105,0.0186157
6435,-8538,6757,-8671,7934,0.0171265,0.0431885,0.0193604,0.0171265
6536,-8692,6880,-8826,8077,0.0215942,0.0290405,0.0193604,0.00595703
6633,-8837,6996,-8971,8211,-0.00372314,0.032019,0.026062,0.0178711
6735,-8976,7107,-9112,8342,0.00968018,0.0297852,0.0186157,0.0163818
6864,-9123,7225,-9261,8478,0.00446777,0.04021,0.00968018,-0.00148926
6998,-9320,7382,-9460,8663,0.00968018,0.0290405,0.0141479,0.0186157
7256,-9498,7525,-9639,8827,0.0178711,0.0342529,0,0.00968018
7356,-9868,7823,-9998,9173,0.000744629,0.0312744,0.0193604,0.0193604
7453,-9999,7937,-10047,9306,0.0215942,0.0416992,0.0178711,0.00595703
7562,-10051,8050,-10040,9437,0.0171265,0.0431885,0.0052124,0.00744629
7657,-10031,8173,-10011,9580,0.0156372,0.0349976,0.0193604,0.0193604
7770,-10004,8287,-9996,9712,0.0126587,0.032019,0.020105,0.0141479
7964,-9992,8414,-9991,9860,0.00148926,0.0282959,0.0178711,0.0171265
8216,-9989,8636,-9973,10017,0.0148926,0.0335083,0.0223389,0.020105
8422,-9981,8936,-9973,9965,0.0171265,0.0387207,0.0134033,0.0178711
8709,-9978,9179,-9981,9969,0.0178711,0.0282959,0.0186157,0.0119141
8810,-10004,9499,-9978,9971,0.0223389,0.0364868,0.0193604,0.0141479
9099,-9999,9626,-9983,9977,0.0156372,0.0446777,0.00819092,0.00670166
9200,-9996,9941,-9981,9992,0.00893555,0.0506348,0.0104248,0.0208496
9300,-9991,9999,-9981,9991,0.00893555,0.0364868,0.0178711,0.0178711
9398,-9983,9978,-9977,9986,0.00670166,0.0431885,0.0193604,0.0163818
9538,-9977,9960,-9974,9987,0.0119141,0.0424438,0.020105,0.00744629
9629,-9981,9953,-9973,9986,0.0215942,0.0394653,0.00148926,0.00893555
9730,-9975,9952,-9978,9995,0.0193604,0.0335083,0.0193604,0.0134033
9831,-9975,9958,-9979,9970,0.00744629,0.046167,0.0178711,0.0126587
9936,-9981,9958,-9981,9962,0.0223389,0.0454224,0.0111694,0.0171265
10036,-9981,9964,-9976,9968,0.00595703,0.04021,0.0215942,0.0134033
10185,-9976,9955,-9971,9968,0.00968018,0.0424438,0.0193604,0.00595703
10287,-9982,9960,-9976,9973,0.0141479,0.0290405,0.0193604,0.0104248
10399,-9976,9966,-9971,9977,0.00819092,0.0446777,0.0163818,0.0163818
10494,-9974,9959,-9978,9975,0.000744629,0.0409546,0.0171265,0.0208496
10604,-9975,9956,-9979,9995,0.0178711,0.0379761,0.0141479,0.0171265
10705,-9979,9956,-9983,9985,0.00819092,0.0431885,0.0119141,0.0171265
10823,-9981,9960,-9976,9986,0.0111694,0.0439331,0.0111694,0.00968018
10922,-9980,9957,-9974,9987,0.0215942,0.0484009,0.00819092,0.0178711
10972,-9980,9957,-9974,9987,0.0215942,0.0484009,0.00819092,0.0178711
