Target speed left (rev/min): 10
Target speed right (rev/min): 10
Target pos left (rev): 1
Target pos right (rev): 1
Data format: <time in ms since beginning>,<position ticks FL>,<position ticks FR>,<position ticks RL>,<position ticks RR>,<current mA FL>,<current mA FR>,<current mA RL>,<current mA RR>
127,0,-1,1,-7,0.00744629,0.018988,0.0137756,0.00930786
235,24,-60,35,-81,0.0141479,0.020105,0.013031,0.00930786
334,85,-157,93,-174,0.0186157,0.0204773,0.00670166,0.00930786
438,153,-259,161,-270,0.0100525,0.018988,0.0137756,0.00930786
544,229,-365,241,-369,0.0148926,0.0193604,0.0145203,0.00930786
643,309,-473,325,-470,0.0156372,0.0212219,0.0126587,0.00930786
746,383,-575,404,-566,0.00893555,0.0208496,0.00670166,0.00930786
850,460,-682,487,-666,0.0104248,0.0126587,0.0145203,0.00930786
951,539,-789,569,-767,0.0152649,0.0215942,0.0115417,0.00930786
1052,615,-893,650,-866,0.0134033,0.018988,0.00632935,0.00930786
1156,694,-1000,733,-967,0.0167542,0.0215942,0.00819092,0.00930786
1277,771,-1106,813,-1066,0.0156372,0.0186157,0.00744629,0.00930786
1378,864,-1232,910,-1185,0.0104248,0.020105,0.00707397,0.00930786
1478,940,-1335,990,-1283,0.0171265,0.0193604,0.0078186,0.00930786
1569,1015,-1439,1069,-1381,0.0148926,0.0215942,0.0134033,0.00930786
1670,1090,-1541,1147,-1478,0.0156372,0.0197327,0.0134033,0.00930786
1783,1171,-1652,1232,-1583,0.013031,0.0152649,0.0126587,0.00930786
1877,1249,-1758,1314,-1683,0.0137756,0.0186157,0.0111694,0.00930786
1993,1329,-1867,1397,-1785,0.0167542,0.0215942,0.0152649,0.00930786
2138,1406,-1974,1479,-1887,0.0167542,0.0148926,0.0122864,0.00930786
2250,1517,-2124,1593,-2028,0.0160095,0.0174988,0.0122864,0.00930786
2353,1604,-2242,1684,-2141,0.00968018,0.0111694,0.0119141,0.00930786
2454,1682,-2347,1765,-2241,0.0186157,0.0212219,0.0134033,0.00930786
2550,1762,-2457,1848,-2344,0.0160095,0.018988,0.013031,0.00930786
2672,1843,-2568,1933,-2449,0.0107971,0.0204773,0.0134033,0.00930786
2773,1926,-2680,2019,-2555,0.00893555,0.0156372,0.00595703,0.00930786
2875,2003,-2785,2099,-2655,0.0141479,0.018988,0.0122864,0.00930786
2978,2081,-2890,2180,-2754,0.0178711,0.018988,0.0052124,0.00930786
3081,2161,-3001,2264,-2858,0.0167542,0.0215942,0.0126587,0.00930786
3175,2239,-3105,2344,-2958,0.0167542,0.0197327,0.0122864,0.00930786
3272,2310,-3202,2419,-3049,0.0163818,0.0134033,0.0141479,0.00930786
3376,2386,-3305,2497,-3147,0.0145203,0.0215942,0.0126587,0.00930786
3477,2464,-3412,2579,-3248,0.0160095,0.0126587,0.0126587,0.00930786
3573,2541,-3516,2658,-3346,0.0115417,0.0208496,0.00819092,0.00930786
3674,2620,-3623,2741,-3447,0.0171265,0.0134033,0.0137756,0.00930786
3770,2692,-3721,2816,-3540,0.0156372,0.0115417,0.0137756,0.00930786
3865,2766,-3821,2894,-3635,0.0186157,0.0160095,0.0141479,0.00930786
3977,2843,-3925,2974,-3734,0.0163818,0.0204773,0.0137756,0.00930786
4070,2925,-4036,3059,-3839,0.0156372,0.0208496,0.0148926,0.00930786
4198,3001,-4139,3138,-3936,0.0152649,0.0186157,0.00744629,0.00930786
4292,3095,-4266,3235,-4056,0.0171265,0.0219666,0.0126587,0.00930786
4434,3170,-4368,3314,-4153,0.0163818,0.0212219,0.00819092,0.00930786
4539,3276,-4511,3424,-4289,0.0119141,0.0204773,0.0141479,0.00930786
4649,3368,-4635,3520,-4407,0.00968018,0.0193604,0.0134033,0.00930786
4750,3447,-4741,3602,-4508,0.0126587,0.0145203,0.0141479,0.00930786
4864,3526,-4848,3684,-4609,0.0152649,0.018988,0.0126587,0.00930786
4965,3610,-4961,3771,-4717,0.0163818,0.0174988,0.0122864,0.00930786
5069,3686,-5063,3849,-4814,0.00819092,0.013031,0.0126587,0.00930786
5187,3777,-5186,3944,-4931,0.0100525,0.0204773,0.0186157,0.00930786
5306,3870,-5310,4041,-5049,0.0182434,0.0215942,0.00819092,0.00930786
5410,3950,-5418,4123,-5151,0.0137756,0.0160095,0.0122864,0.00930786
5509,4031,-5526,4206,-5254,0.0178711,0.018988,0.0134033,0.00930786
5611,4108,-5630,4286,-5353,0.0152649,0.0126587,0.0141479,0.00930786
5727,4187,-5736,4368,-5453,0.0160095,0.0163818,0.0134033,0.00930786
5852,4288,-5871,4472,-5582,0.0156372,0.0160095,0.00632935,0.00930786
5949,4375,-5988,4561,-5693,0.0104248,0.018988,0.0104248,0.00930786
6050,4450,-6089,4639,-5788,0.0104248,0.018988,0.0152649,0.00930786
6170,4529,-6193,4720,-5887,0.0152649,0.020105,0.0145203,0.00930786
6278,4623,-6319,4818,-6008,0.0111694,0.020105,0.0119141,0.00930786
6377,4706,-6429,4904,-6113,0.0156372,0.0227112,0.0148926,0.00930786
6479,4782,-6532,4983,-6210,0.00930786,0.0223389,0.0152649,0.00930786
6581,4861,-6639,5065,-6312,0.0126587,0.020105,0.0141479,0.00930786
6686,4943,-6748,5150,-6415,0.0167542,0.0156372,0.00558472,0.00930786
6789,5023,-6854,5233,-6517,0.00819092,0.0204773,0.0122864,0.00930786
6889,5104,-6962,5316,-6619,0.0167542,0.0208496,0.013031,0.00930786
6995,5182,-7066,5397,-6718,0.0186157,0.0163818,0.0122864,0.00930786
7093,5264,-7176,5482,-6822,0.0163818,0.0126587,0.0107971,0.00930786
7199,5342,-7280,5562,-6922,0.0160095,0.0227112,0.013031,0.00930786
7302,5424,-7389,5646,-7025,0.00968018,0.0227112,0.013031,0.00930786
7398,5505,-7497,5730,-7128,0.0100525,0.0134033,0.00670166,0.00930786
7505,5582,-7599,5809,-7226,0.0156372,0.0204773,0.0134033,0.00930786
7607,5664,-7708,5893,-7330,0.0078186,0.0219666,0.0141479,0.00930786
7763,5780,-7863,6013,-7477,0.0163818,0.0208496,0.0126587,0.00930786
7867,5867,-7977,6102,-7586,0.0137756,0.0212219,0.0148926,0.00930786
7962,5947,-8085,6185,-7689,0.0148926,0.0197327,0.0137756,0.00930786
8064,6025,-8188,6265,-7788,0.0148926,0.0193604,0.0119141,0.00930786
8166,6107,-8295,6349,-7891,0.0167542,0.0152649,0.0126587,0.00930786
8269,6188,-8402,6432,-7993,0.0104248,0.0145203,0.013031,0.00930786
8371,6269,-8509,6516,-8095,0.0163818,0.0186157,0.0141479,0.00930786
8475,6349,-8614,6598,-8195,0.0186157,0.0215942,0.0078186,0.00930786
8581,6428,-8719,6679,-8296,0.0100525,0.020105,0.00893555,0.00930786
8686,6511,-8828,6764,-8399,0.0148926,0.0134033,0.0122864,0.00930786
8788,6592,-8936,6849,-8503,0.0119141,0.018988,0.00819092,0.00930786
8883,6673,-9043,6932,-8604,0.0160095,0.0208496,0.00595703,0.00930786
9001,6752,-9148,7013,-8704,0.0145203,0.0119141,0.0134033,0.00930786
9103,6845,-9271,7109,-8821,0.00930786,0.0137756,0.00707397,0.00930786
9223,6928,-9380,7194,-8925,0.0178711,0.0134033,0.0052124,0.00930786
9350,7016,-9496,7285,-9036,0.00930786,0.020105,0.0126587,0.00930786
9506,7115,-9628,7388,-9162,0.00930786,0.020105,0.0126587,0.00930786
9554,7115,-9628,7388,-9162,0.00930786,0.020105,0.0126587,0.00930786
9648,7115,-9628,7388,-9162,0.00930786,0.020105,0.0126587,0.00930786
9730,7115,-9628,7388,-9162,0.00930786,0.020105,0.0126587,0.00930786
9819,7115,-9628,7388,-9162,0.00930786,0.020105,0.0126587,0.00930786
9907,7115,-9628,7388,-9162,0.00930786,0.020105,0.0126587,0.00930786
10000,7115,-9628,7388,-9162,0.00930786,0.020105,0.0126587,0.00930786
10088,7115,-9628,7388,-9162,0.00930786,0.020105,0.0126587,0.00930786
10179,7115,-9628,7388,-9162,0.00930786,0.020105,0.0126587,0.00930786
10270,7115,-9628,7388,-9162,0.00930786,0.020105,0.0126587,0.00930786
10350,7115,-9628,7388,-9162,0.00930786,0.020105,0.0126587,0.00930786
10451,7115,-9628,7388,-9162,0.00930786,0.020105,0.0126587,0.00930786
10529,7115,-9628,7388,-9162,0.00930786,0.020105,0.0126587,0.00930786
10616,7115,-9628,7388,-9162,0.00930786,0.020105,0.0126587,0.00930786
10705,7115,-9628,7388,-9162,0.00930786,0.020105,0.0126587,0.00930786
10794,7115,-9628,7388,-9162,0.00930786,0.020105,0.0126587,0.00930786
10882,7115,-9628,7388,-9162,0.00930786,0.020105,0.0126587,0.00930786
10972,7115,-9628,7388,-9162,0.00930786,0.020105,0.0126587,0.00930786
11060,7115,-9628,7388,-9162,0.00930786,0.020105,0.0126587,0.00930786
11148,7115,-9628,7388,-9162,0.00930786,0.020105,0.0126587,0.00930786
11238,7115,-9628,7388,-9162,0.00930786,0.020105,0.0126587,0.00930786
11331,7115,-9628,7388,-9162,0.00930786,0.020105,0.0126587,0.00930786
11415,7115,-9628,7388,-9162,0.00930786,0.020105,0.0126587,0.00930786
11502,7115,-9628,7388,-9162,0.00930786,0.020105,0.0126587,0.00930786
11592,7115,-9628,7388,-9162,0.00930786,0.020105,0.0126587,0.00930786
11681,7115,-9628,7388,-9162,0.00930786,0.020105,0.0126587,0.00930786
11771,7115,-9628,7388,-9162,0.00930786,0.020105,0.0126587,0.00930786
11858,7115,-9628,7388,-9162,0.00930786,0.020105,0.0126587,0.00930786
11945,7115,-9628,7388,-9162,0.00930786,0.020105,0.0126587,0.00930786
12033,7115,-9628,7388,-9162,0.00930786,0.020105,0.0126587,0.00930786
12128,7115,-9628,7388,-9162,0.00930786,0.020105,0.0126587,0.00930786
12213,7115,-9628,7388,-9162,0.00930786,0.020105,0.0126587,0.00930786
12301,7115,-9628,7388,-9162,0.00930786,0.020105,0.0126587,0.00930786
12482,7115,-9628,7388,-9162,0.00930786,0.020105,0.0126587,0.00930786
12543,7115,-9628,7388,-9162,0.00930786,0.020105,0.0126587,0.00930786
12642,7115,-9628,7388,-9162,0.00930786,0.020105,0.0126587,0.00930786
12725,7115,-9628,7388,-9162,0.00930786,0.020105,0.0126587,0.00930786
12809,7115,-9628,7388,-9162,0.00930786,0.020105,0.0126587,0.00930786
12903,7115,-9628,7388,-9162,0.00930786,0.020105,0.0126587,0.00930786
12986,7115,-9628,7388,-9162,0.00930786,0.020105,0.0126587,0.00930786
13082,7115,-9628,7388,-9162,0.00930786,0.020105,0.0126587,0.00930786
13165,7115,-9628,7388,-9162,0.00930786,0.020105,0.0126587,0.00930786
13258,7115,-9628,7388,-9162,0.00930786,0.020105,0.0126587,0.00930786
13342,7115,-9628,7388,-9162,0.00930786,0.020105,0.0126587,0.00930786
13429,7115,-9628,7388,-9162,0.00930786,0.020105,0.0126587,0.00930786
13525,7115,-9628,7388,-9162,0.00930786,0.020105,0.0126587,0.00930786
13622,7115,-9628,7388,-9162,0.00930786,0.020105,0.0126587,0.00930786
13703,7115,-9628,7388,-9162,0.00930786,0.020105,0.0126587,0.00930786
13790,7115,-9628,7388,-9162,0.00930786,0.020105,0.0126587,0.00930786
13880,7115,-9628,7388,-9162,0.00930786,0.020105,0.0126587,0.00930786
13969,7115,-9628,7388,-9162,0.00930786,0.020105,0.0126587,0.00930786
14056,7115,-9628,7388,-9162,0.00930786,0.020105,0.0126587,0.00930786
14146,7115,-9628,7388,-9162,0.00930786,0.020105,0.0126587,0.00930786
14240,7115,-9628,7388,-9162,0.00930786,0.020105,0.0126587,0.00930786
14322,7115,-9628,7388,-9162,0.00930786,0.020105,0.0126587,0.00930786
14412,7115,-9628,7388,-9162,0.00930786,0.020105,0.0126587,0.00930786
14506,7115,-9628,7388,-9162,0.00930786,0.020105,0.0126587,0.00930786
14590,7115,-9628,7388,-9162,0.00930786,0.020105,0.0126587,0.00930786
14685,7115,-9628,7388,-9162,0.00930786,0.020105,0.0126587,0.00930786
14767,7115,-9628,7388,-9162,0.00930786,0.020105,0.0126587,0.00930786
14854,7115,-9628,7388,-9162,0.00930786,0.020105,0.0126587,0.00930786
14950,7115,-9628,7388,-9162,0.00930786,0.020105,0.0126587,0.00930786
15034,7115,-9628,7388,-9162,0.00930786,0.020105,0.0126587,0.00930786
15120,7115,-9628,7388,-9162,0.00930786,0.020105,0.0126587,0.00930786
15208,7115,-9628,7388,-9162,0.00930786,0.020105,0.0126587,0.00930786
15297,7115,-9628,7388,-9162,0.00930786,0.020105,0.0126587,0.00930786
15385,7115,-9628,7388,-9162,0.00930786,0.020105,0.0126587,0.00930786
15475,7115,-9628,7388,-9162,0.00930786,0.020105,0.0126587,0.00930786
15563,7115,-9628,7388,-9162,0.00930786,0.020105,0.0126587,0.00930786
15651,7115,-9628,7388,-9162,0.00930786,0.020105,0.0126587,0.00930786
15743,7115,-9628,7388,-9162,0.00930786,0.020105,0.0126587,0.00930786
15830,7115,-9628,7388,-9162,0.00930786,0.020105,0.0126587,0.00930786
15918,7115,-9628,7388,-9162,0.00930786,0.020105,0.0126587,0.00930786
16008,7115,-9628,7388,-9162,0.00930786,0.020105,0.0126587,0.00930786
16094,7115,-9628,7388,-9162,0.00930786,0.020105,0.0126587,0.00930786
16185,7115,-9628,7388,-9162,0.00930786,0.020105,0.0126587,0.00930786
16272,7115,-9628,7388,-9162,0.00930786,0.020105,0.0126587,0.00930786
16363,7115,-9628,7388,-9162,0.00930786,0.020105,0.0126587,0.00930786
16470,7115,-9628,7388,-9162,0.00930786,0.020105,0.0126587,0.00930786
16537,7115,-9628,7388,-9162,0.00930786,0.020105,0.0126587,0.00930786
16637,7115,-9628,7388,-9162,0.00930786,0.020105,0.0126587,0.00930786
16721,7115,-9628,7388,-9162,0.00930786,0.020105,0.0126587,0.00930786
16803,7115,-9628,7388,-9162,0.00930786,0.020105,0.0126587,0.00930786
16902,7115,-9628,7388,-9162,0.00930786,0.020105,0.0126587,0.00930786
16981,7115,-9628,7388,-9162,0.00930786,0.020105,0.0126587,0.00930786
17075,7115,-9628,7388,-9162,0.00930786,0.020105,0.0126587,0.00930786
17158,7115,-9628,7388,-9162,0.00930786,0.020105,0.0126587,0.00930786
17248,7115,-9628,7388,-9162,0.00930786,0.020105,0.0126587,0.00930786
17335,7115,-9628,7388,-9162,0.00930786,0.020105,0.0126587,0.00930786
17438,7115,-9628,7388,-9162,0.00930786,0.020105,0.0126587,0.00930786
17513,7115,-9628,7388,-9162,0.00930786,0.020105,0.0126587,0.00930786
17601,7115,-9628,7388,-9162,0.00930786,0.020105,0.0126587,0.00930786
17694,7115,-9628,7388,-9162,0.00930786,0.020105,0.0126587,0.00930786
17782,7115,-9628,7388,-9162,0.00930786,0.020105,0.0126587,0.00930786
17867,7115,-9628,7388,-9162,0.00930786,0.020105,0.0126587,0.00930786
17968,7115,-9628,7388,-9162,0.00930786,0.020105,0.0126587,0.00930786
18064,7115,-9628,7388,-9162,0.00930786,0.020105,0.0126587,0.00930786
18155,7115,-9628,7388,-9162,0.00930786,0.020105,0.0126587,0.00930786
18235,7115,-9628,7388,-9162,0.00930786,0.020105,0.0126587,0.00930786
18332,7115,-9628,7388,-9162,0.00930786,0.020105,0.0126587,0.00930786
18413,7115,-9628,7388,-9162,0.00930786,0.020105,0.0126587,0.00930786
18515,7115,-9628,7388,-9162,0.00930786,0.020105,0.0126587,0.00930786
18590,7115,-9628,7388,-9162,0.00930786,0.020105,0.0126587,0.00930786
18679,7115,-9628,7388,-9162,0.00930786,0.020105,0.0126587,0.00930786
18769,7115,-9628,7388,-9162,0.00930786,0.020105,0.0126587,0.00930786
18857,7115,-9628,7388,-9162,0.00930786,0.020105,0.0126587,0.00930786
18950,7115,-9628,7388,-9162,0.00930786,0.020105,0.0126587,0.00930786
19033,7115,-9628,7388,-9162,0.00930786,0.020105,0.0126587,0.00930786
19123,7115,-9628,7388,-9162,0.00930786,0.020105,0.0126587,0.00930786
19216,7115,-9628,7388,-9162,0.00930786,0.020105,0.0126587,0.00930786
19300,7115,-9628,7388,-9162,0.00930786,0.020105,0.0126587,0.00930786
19402,7115,-9628,7388,-9162,0.00930786,0.020105,0.0126587,0.00930786
19487,7115,-9628,7388,-9162,0.00930786,0.020105,0.0126587,0.00930786
19576,7115,-9628,7388,-9162,0.00930786,0.020105,0.0126587,0.00930786
19667,7115,-9628,7388,-9162,0.00930786,0.020105,0.0126587,0.00930786
19761,7115,-9628,7388,-9162,0.00930786,0.020105,0.0126587,0.00930786
19847,7115,-9628,7388,-9162,0.00930786,0.020105,0.0126587,0.00930786
19933,7115,-9628,7388,-9162,0.00930786,0.020105,0.0126587,0.00930786
20019,7115,-9628,7388,-9162,0.00930786,0.020105,0.0126587,0.00930786
20116,7115,-9628,7388,-9162,0.00930786,0.020105,0.0126587,0.00930786
20200,7115,-9628,7388,-9162,0.00930786,0.020105,0.0126587,0.00930786
20284,7115,-9628,7388,-9162,0.00930786,0.020105,0.0126587,0.00930786
20378,7115,-9628,7388,-9162,0.00930786,0.020105,0.0126587,0.00930786
20462,7115,-9628,7388,-9162,0.00930786,0.020105,0.0126587,0.00930786
20558,7115,-9628,7388,-9162,0.00930786,0.020105,0.0126587,0.00930786
20651,7115,-9628,7388,-9162,0.00930786,0.020105,0.0126587,0.00930786
20733,7115,-9628,7388,-9162,0.00930786,0.020105,0.0126587,0.00930786
20817,7115,-9628,7388,-9162,0.00930786,0.020105,0.0126587,0.00930786
20906,7115,-9628,7388,-9162,0.00930786,0.020105,0.0126587,0.00930786
20994,7115,-9628,7388,-9162,0.00930786,0.020105,0.0126587,0.00930786
21091,7115,-9628,7388,-9162,0.00930786,0.020105,0.0126587,0.00930786
21179,7115,-9628,7388,-9162,0.00930786,0.020105,0.0126587,0.00930786
21264,7115,-9628,7388,-9162,0.00930786,0.020105,0.0126587,0.00930786
21348,7115,-9628,7388,-9162,0.00930786,0.020105,0.0126587,0.00930786
21443,7115,-9628,7388,-9162,0.00930786,0.020105,0.0126587,0.00930786
21531,7115,-9628,7388,-9162,0.00930786,0.020105,0.0126587,0.00930786
21613,7115,-9628,7388,-9162,0.00930786,0.020105,0.0126587,0.00930786
21704,7115,-9628,7388,-9162,0.00930786,0.020105,0.0126587,0.00930786
21792,7115,-9628,7388,-9162,0.00930786,0.020105,0.0126587,0.00930786
21893,7115,-9628,7388,-9162,0.00930786,0.020105,0.0126587,0.00930786
21972,7115,-9628,7388,-9162,0.00930786,0.020105,0.0126587,0.00930786
22060,7115,-9628,7388,-9162,0.00930786,0.020105,0.0126587,0.00930786
22168,7115,-9628,7388,-9162,0.00930786,0.020105,0.0126587,0.00930786
22270,7115,-9628,7388,-9162,0.00930786,0.020105,0.0126587,0.00930786
22326,7115,-9628,7388,-9162,0.00930786,0.020105,0.0126587,0.00930786
22411,7115,-9628,7388,-9162,0.00930786,0.020105,0.0126587,0.00930786
22502,7115,-9628,7388,-9162,0.00930786,0.020105,0.0126587,0.00930786
22595,7115,-9628,7388,-9162,0.00930786,0.020105,0.0126587,0.00930786
22677,7115,-9628,7388,-9162,0.00930786,0.020105,0.0126587,0.00930786
22765,7115,-9628,7388,-9162,0.00930786,0.020105,0.0126587,0.00930786
22865,7115,-9628,7388,-9162,0.00930786,0.020105,0.0126587,0.00930786
22944,7115,-9628,7388,-9162,0.00930786,0.020105,0.0126587,0.00930786
23042,7115,-9628,7388,-9162,0.00930786,0.020105,0.0126587,0.00930786
23124,7115,-9628,7388,-9162,0.00930786,0.020105,0.0126587,0.00930786
23209,7115,-9628,7388,-9162,0.00930786,0.020105,0.0126587,0.00930786
23297,7115,-9628,7388,-9162,0.00930786,0.020105,0.0126587,0.00930786
23387,7115,-9628,7388,-9162,0.00930786,0.020105,0.0126587,0.00930786
23477,7115,-9628,7388,-9162,0.00930786,0.020105,0.0126587,0.00930786
23567,7115,-9628,7388,-9162,0.00930786,0.020105,0.0126587,0.00930786
23651,7115,-9628,7388,-9162,0.00930786,0.020105,0.0126587,0.00930786
23740,7115,-9628,7388,-9162,0.00930786,0.020105,0.0126587,0.00930786
23833,7115,-9628,7388,-9162,0.00930786,0.020105,0.0126587,0.00930786
23917,7115,-9628,7388,-9162,0.00930786,0.020105,0.0126587,0.00930786
24014,7115,-9628,7388,-9162,0.00930786,0.020105,0.0126587,0.00930786
24095,7115,-9628,7388,-9162,0.00930786,0.020105,0.0126587,0.00930786
24183,7115,-9628,7388,-9162,0.00930786,0.020105,0.0126587,0.00930786
24275,7115,-9628,7388,-9162,0.00930786,0.020105,0.0126587,0.00930786
24361,7115,-9628,7388,-9162,0.00930786,0.020105,0.0126587,0.00930786
24455,7115,-9628,7388,-9162,0.00930786,0.020105,0.0126587,0.00930786
24559,7115,-9628,7388,-9162,0.00930786,0.020105,0.0126587,0.00930786
24626,7115,-9628,7388,-9162,0.00930786,0.020105,0.0126587,0.00930786
24725,7115,-9628,7388,-9162,0.00930786,0.020105,0.0126587,0.00930786
24806,7115,-9628,7388,-9162,0.00930786,0.020105,0.0126587,0.00930786
24893,7115,-9628,7388,-9162,0.00930786,0.020105,0.0126587,0.00930786
24988,7115,-9628,7388,-9162,0.00930786,0.020105,0.0126587,0.00930786
25071,7115,-9628,7388,-9162,0.00930786,0.020105,0.0126587,0.00930786
25168,7115,-9628,7388,-9162,0.00930786,0.020105,0.0126587,0.00930786
25248,7115,-9628,7388,-9162,0.00930786,0.020105,0.0126587,0.00930786
25343,7115,-9628,7388,-9162,0.00930786,0.020105,0.0126587,0.00930786
25425,7115,-9628,7388,-9162,0.00930786,0.020105,0.0126587,0.00930786
25512,7115,-9628,7388,-9162,0.00930786,0.020105,0.0126587,0.00930786
25606,7115,-9628,7388,-9162,0.00930786,0.020105,0.0126587,0.00930786
25692,7115,-9628,7388,-9162,0.00930786,0.020105,0.0126587,0.00930786
25779,7115,-9628,7388,-9162,0.00930786,0.020105,0.0126587,0.00930786
25872,7115,-9628,7388,-9162,0.00930786,0.020105,0.0126587,0.00930786
25956,7115,-9628,7388,-9162,0.00930786,0.020105,0.0126587,0.00930786
26044,7115,-9628,7388,-9162,0.00930786,0.020105,0.0126587,0.00930786
26134,7115,-9628,7388,-9162,0.00930786,0.020105,0.0126587,0.00930786
26223,7115,-9628,7388,-9162,0.00930786,0.020105,0.0126587,0.00930786
26319,7115,-9628,7388,-9162,0.00930786,0.020105,0.0126587,0.00930786
26398,7115,-9628,7388,-9162,0.00930786,0.020105,0.0126587,0.00930786
26487,7115,-9628,7388,-9162,0.00930786,0.020105,0.0126587,0.00930786
26577,7115,-9628,7388,-9162,0.00930786,0.020105,0.0126587,0.00930786
26666,7115,-9628,7388,-9162,0.00930786,0.020105,0.0126587,0.00930786
26756,7115,-9628,7388,-9162,0.00930786,0.020105,0.0126587,0.00930786
26844,7115,-9628,7388,-9162,0.00930786,0.020105,0.0126587,0.00930786
26931,7115,-9628,7388,-9162,0.00930786,0.020105,0.0126587,0.00930786
27019,7115,-9628,7388,-9162,0.00930786,0.020105,0.0126587,0.00930786
27110,7115,-9628,7388,-9162,0.00930786,0.020105,0.0126587,0.00930786
