Target speed left front (rev/min): 15
Target speed left back (rev/min): 15
Target speed right front (rev/min): 5
Target speed right back (rev/min): 5
Target pos left (rev): 1
Target pos right (rev): 1
Data format: <time in ms since beginning>,<position ticks FL>,<position ticks FR>,<position ticks RL>,<position ticks RR>,<current mA FL>,<current mA FR>,<current mA RL>,<current mA RR>
108,5,-3,4,0,-0.635168,0.0156372,-0.0160095,-0.0227112
202,223,-175,130,-145,-0.635168,0.0279236,-0.013031,0.00558472
298,491,-106,159,-110,-0.635168,0.0282959,0.00670166,0.00819092
394,752,-133,124,-97,-0.635168,0.0238281,0,0.00484009
495,1006,-180,132,-137,-0.635168,0.026062,0.00632935,0.00484009
600,1284,-239,148,-184,-0.635168,0.0253174,0.00670166,0.00968018
699,1563,-306,175,-241,-0.635168,0.0282959,0.00819092,0.00856323
802,1833,-371,206,-295,-0.635168,0.0268066,0.00670166,0.0100525
904,2107,-437,238,-352,-0.635168,0.0253174,0.0026062,0.00484009
1007,2385,-503,270,-408,-0.635168,0.0253174,0.00595703,0.00707397
1109,2661,-569,301,-464,-0.635168,0.0282959,0.00558472,0.00930786
1211,2938,-635,333,-520,-0.635168,0.0268066,0.00297852,0.00744629
1314,3217,-702,366,-577,-0.635168,0.0264343,0.0052124,0.0078186
1419,3490,-767,397,-633,-0.635168,0.0242004,0.00632935,0.00595703
1519,3785,-837,431,-693,-0.635168,0.027179,0.000744629,0.00744629
1624,4044,-899,461,-745,-0.635168,0.026062,0.000744629,0.00707397
1716,4329,-967,494,-803,-0.635168,0.0256897,0.0052124,0.00707397
1828,4595,-1031,525,-857,-0.635168,0.027179,0.00670166,0.00558472
1931,4881,-1100,558,-915,-0.635168,0.0249451,0.00186157,0.00744629
2031,5155,-1166,590,-971,-0.635168,0.0238281,0.00595703,0.00297852
2134,5426,-1230,621,-1026,-0.635168,0.0253174,0.0026062,0.0078186
2237,5704,-1296,654,-1083,-0.635168,0.0253174,0.00446777,0.00968018
2338,5982,-1363,686,-1140,-0.635168,0.0256897,0.00632935,0.00558472
2440,6255,-1429,718,-1194,-0.635168,0.0242004,0.00595703,0.00744629
2543,6530,-1495,750,-1251,-0.635168,0.0227112,0.00558472,0.00372314
2645,6810,-1561,783,-1307,-0.635168,0.0227112,0.00223389,0.00819092
2747,7083,-1627,815,-1363,-0.635168,0.026062,0.00297852,0.00893555
2851,7359,-1693,847,-1419,-0.635168,0.0227112,0.00819092,0.0052124
2952,7638,-1759,880,-1476,-0.635168,0.0245728,0.00446777,0.00744629
3057,7911,-1825,912,-1532,-0.635168,0.0208496,0.0052124,0.0052124
3157,8194,-1892,945,-1590,-0.635168,0.0215942,0.00670166,0.00819092
3260,8464,-1957,977,-1645,-0.635168,0.0215942,0.00558472,0.00856323
3362,8743,-2024,1010,-1702,-0.635168,0.027179,0.00744629,0.0078186
3464,9017,-2089,1042,-1757,-0.635168,0.0223389,0.000372314,0.00409546
3567,9292,-2156,1074,-1813,-0.635168,0.027179,0.00372314,0.0078186
3669,9571,-2222,1106,-1870,-0.635168,0.0253174,0.00744629,0.0104248
3771,9845,-2289,1138,-1926,-0.635168,0.027179,0.0026062,0.00707397
3874,10039,-2355,1170,-1982,-0.635168,0.0219666,0.00632935,0.00856323
3976,10178,-2421,1203,-2038,-0.635168,0.0249451,0.00558472,0.00297852
4079,10362,-2487,1235,-2094,-0.635168,0.0253174,0.00670166,0.00893555
4184,10577,-2555,1268,-2152,-0.635168,0.0223389,0.00595703,0.00893555
4276,10739,-2622,1301,-2209,-0.635168,0.0208496,0.0078186,0.00595703
4386,10929,-2685,1332,-2262,-0.635168,0.027179,0.00670166,0.00670166
4488,11083,-2754,1365,-2320,-0.635168,0.0256897,0.00223389,0.00297852
4591,11317,-2820,1398,-2377,-0.635168,0.0282959,0.0078186,0.00819092
4693,11443,-2886,1430,-2433,-0.635168,0.026062,0.0052124,0.00893555
4795,11686,-2953,1463,-2489,-0.635168,0.0268066,0.00148926,0.00372314
4899,11807,-3019,1495,-2545,-0.635168,0.0234558,0.00632935,0.0100525
5001,12048,-3086,1528,-2603,-0.635168,0.0256897,0.0078186,0.00930786
5095,12173,-3153,1560,-2659,-0.635168,0.0256897,0.00670166,0.00372314
5205,12400,-3218,1592,-2713,-0.635168,0.0282959,0.0026062,0.00484009
5314,12535,-3286,1625,-2771,-0.635168,0.0256897,0.00595703,0.00893555
5418,12852,-3362,1663,-2835,-0.635168,0.0197327,0.0052124,0.00856323
5512,13128,-3425,1692,-2888,-0.635168,0.026062,0.000744629,0.00632935
5615,13410,-3486,1722,-2940,-0.635168,0.0253174,0.00409546,0.0104248
5717,13722,-3552,1755,-2996,-0.635168,0.0204773,0.00335083,0.00856323
5820,14035,-3620,1788,-3053,-0.635168,0.0178711,0.00558472,0.00446777
5922,14345,-3686,1820,-3109,-0.635168,0.0234558,0.00409546,0.00930786
6025,14656,-3753,1852,-3165,-0.635168,0.0256897,0.00297852,0.00819092
6129,14971,-3821,1885,-3222,-0.635168,0.0282959,0.00707397,0.00335083
6229,15280,-3887,1917,-3278,-0.635168,0.0264343,0.00558472,0.00930786
6331,15584,-3953,1949,-3333,-0.635168,0.0208496,0.00484009,0.00446777
6435,15893,-4019,1981,-3389,-0.635168,0.0264343,0.0078186,0.0052124
6537,16206,-4086,2014,-3446,-0.635168,0.0249451,0.0026062,0.00819092
6640,16514,-4153,2046,-3502,-0.635168,0.026062,0.00297852,0.00930786
6734,16824,-4220,2078,-3558,-0.635168,0.0245728,0.00484009,0.00819092
6845,17125,-4285,2109,-3613,-0.635168,0.0238281,0.00372314,0.0078186
6947,17447,-4354,2144,-3671,-0.635168,0.0230835,0.0078186,0.00819092
7050,17751,-4420,2175,-3726,-0.635168,0.0268066,0.00297852,0.0100525
7151,18061,-4487,2208,-3782,-0.635168,0.0256897,0.00595703,0.00930786
7204,18368,-4554,2240,-3838,-0.635168,0.0256897,0.00595703,0.00930786
