Target speed left front (rev/min): 8.35
Target speed left back (rev/min): 8.98
Target speed right front (rev/min): 10
Target speed right back (rev/min): 10.3
Target pos left (rev): 2
Target pos right (rev): 2
Data format: <time in ms since beginning>,<position ticks FL>,<position ticks FR>,<position ticks RL>,<position ticks RR>,<current mA FL>,<current mA FR>,<current mA RL>,<current mA RR>
204,8,-115,26,-5,0.0078186,0.0242004,-0.00148926,-0.0107971
402,137,-180,152,-139,0.00930786,0.0186157,0.0122864,0.00893555
598,215,-356,245,-294,0.00707397,0.0238281,0.0115417,0.00968018
794,336,-562,375,-486,0.00930786,0.0223389,0.0126587,0.00744629
988,466,-771,512,-683,0.00707397,0.0234558,0.013031,0.00335083
1187,589,-969,642,-871,0.00297852,0.0186157,0.0126587,0.00670166
1389,721,-1183,782,-1073,0.0126587,0.0219666,0.00632935,0.000744629
1594,854,-1397,924,-1275,0.0078186,0.0227112,0.013031,0.00335083
1796,984,-1607,1063,-1474,0.0052124,0.0238281,0.0134033,0.00819092
2001,1120,-1827,1207,-1682,0.00446777,0.0238281,0.0100525,0.00335083
2207,1253,-2040,1348,-1885,0.00893555,0.0156372,0.00819092,0.00372314
2421,1386,-2255,1490,-2088,0.00223389,0.0242004,0.00484009,0.00819092
2617,1521,-2471,1632,-2292,0.00409546,0.0234558,0.013031,0.00484009
2821,1651,-2680,1770,-2490,0.0100525,0.0223389,0.00558472,0.00670166
3026,1786,-2897,1913,-2695,0.00632935,0.0212219,0.0119141,0.00856323
3236,1921,-3114,2057,-2900,0.0078186,0.0156372,0.0119141,0.0026062
3436,2052,-3326,2197,-3101,0.0026062,0.0156372,0.00446777,0.00856323
3640,2187,-3543,2340,-3305,0.00223389,0.0230835,0.0115417,0.0137756
3853,2319,-3754,2481,-3506,0.00484009,0.0178711,0.0126587,0.0104248
4060,2456,-3974,2628,-3714,0.00632935,0.0178711,0.0078186,0.00968018
4256,2589,-4187,2769,-3916,0.00632935,0.0227112,0.00558472,0.0026062
4472,2721,-4399,2911,-4117,0.0104248,0.0174988,0.00707397,0.0078186
4666,2858,-4618,3057,-4324,0.00632935,0.0227112,0.00707397,0.00856323
4869,2990,-4828,3197,-4524,0.00707397,0.0193604,0.0115417,0.00670166
5074,3123,-5039,3339,-4725,0.00595703,0.0227112,0.0115417,0.00968018
5278,3259,-5256,3484,-4930,0.00409546,0.0234558,0.0115417,0.00558472
5485,3393,-5472,3628,-5134,0.00819092,0.0219666,0.0122864,0.00856323
5688,3527,-5688,3773,-5338,0.00856323,0.0152649,0.0126587,0.00409546
5891,3661,-5902,3916,-5541,0.0026062,0.0253174,0.00632935,0.00744629
6104,3796,-6116,4060,-5744,0.0078186,0.0238281,0.00968018,0.0115417
6303,3930,-6332,4203,-5948,0.0026062,0.0223389,0.0122864,0.00707397
6509,4063,-6544,4346,-6149,0.0111694,0.0234558,0.0111694,0.00856323
6712,4199,-6761,4492,-6354,0.00819092,0.0223389,0.0111694,0.00819092
6917,4333,-6975,4636,-6558,0.0052124,0.0186157,0.0104248,0.00819092
7122,4467,-7190,4781,-6762,0.00819092,0.0174988,0.0115417,0.00707397
7326,4602,-7405,4926,-6965,0.00595703,0.0242004,0.0104248,0.00484009
7531,4737,-7622,5072,-7171,0.00856323,0.0234558,0.0078186,0.00409546
7737,4870,-7835,5216,-7372,0.00670166,0.0234558,0.00632935,0.00372314
7946,5004,-8049,5360,-7575,0.0104248,0.0234558,0.0115417,0.00707397
8145,5141,-8268,5507,-7783,0.00223389,0.0227112,0.00558472,0.00893555
8349,5272,-8478,5648,-7981,0.00707397,0.0219666,0.0104248,0.00856323
8564,5409,-8698,5797,-8191,0.00484009,0.0178711,0.0119141,0.00856323
8759,5543,-8912,5941,-8394,0.00856323,0.0234558,0.0111694,0.0052124
8966,5679,-9129,6087,-8600,0.00558472,0.0256897,0.0115417,0.00744629
9174,5813,-9343,6231,-8804,0.00819092,0.0234558,0.00930786,0.00297852
9375,5947,-9557,6376,-9008,0.00372314,0.0174988,0.0115417,0.00930786
9584,6081,-9772,6522,-9212,0.00930786,0.0219666,0.00632935,0.00297852
9784,6214,-9985,6666,-9414,0.00595703,0.0230835,0.0052124,0.00893555
9992,6350,-10201,6813,-9619,0.00893555,0.0197327,0.0115417,0.0078186
10197,6485,-10418,6959,-9825,0.00968018,0.0174988,0.00632935,0.00446777
10404,6619,-10632,7104,-10029,0.0078186,0.0182434,0.0119141,0.00893555
10604,6753,-10847,7250,-10234,0.00744629,0.0230835,0.0126587,0.00148926
10808,6887,-11061,7396,-10438,0.00409546,0.0193604,0.0122864,0.00893555
11013,7021,-11276,7541,-10642,0.00707397,0.0230835,0.0107971,0.00893555
11222,7157,-11492,7688,-10848,0.00297852,0.0215942,0.0115417,0.00819092
11424,7291,-11707,7835,-11054,0.00930786,0.0193604,0.00670166,0.00372314
11625,7425,-11921,7980,-11258,0.0078186,0.0204773,0.0126587,0.0104248
11839,7559,-12135,8125,-11463,0.00856323,0.0227112,0.0107971,0.00893555
12039,7696,-12354,8273,-11671,0.00632935,0.0234558,0.0115417,0.00893555
12244,7830,-12569,8419,-11877,0.00744629,0.0227112,0.00446777,0.0111694
12449,7964,-12783,8564,-12080,0.00595703,0.0256897,0.0126587,0.00297852
12652,8100,-13001,8712,-12288,0.00819092,0.0174988,0.0115417,0.00595703
12856,8235,-13215,8858,-12493,0.0078186,0.0242004,0.00819092,0.0078186
13061,8369,-13429,9003,-12697,0.00707397,0.0249451,0.0134033,0.00930786
13266,8504,-13644,9150,-12903,0.0078186,0.0219666,0.00856323,0.00446777
13472,8639,-13860,9296,-13109,0.00335083,0.0230835,0.0107971,0.00819092
13676,8771,-14072,9440,-13312,0.0052124,0.0227112,0.0119141,0.00930786
13881,8908,-14289,9588,-13520,0.0052124,0.0182434,0.00595703,0.00297852
14089,9046,-14510,9739,-13732,0.00819092,0.0234558,0.00930786,0.00707397
14291,9176,-14718,9880,-13930,0.00819092,0.0230835,0.00632935,0.00968018
14495,9311,-14934,10027,-14137,0.00856323,0.0234558,0.0126587,0.00335083
14701,9446,-15151,10176,-14344,0.00744629,0.0234558,0.0052124,0.00856323
14905,9580,-15364,10322,-14549,0.00819092,0.0197327,0.0111694,0.000372314
15108,9715,-15579,10469,-14755,0.0052124,0.0178711,0.0100525,0.00968018
15315,9851,-15796,10617,-14962,0.00558472,0.0238281,0.0115417,0.0026062
15520,9987,-16012,10764,-15168,0.00930786,0.0160095,0.00670166,0.00707397
15723,10121,-16224,10909,-15371,0.00968018,0.0223389,0.0122864,0.00856323
15932,10255,-16440,11055,-15577,0.0078186,0.0193604,0.00707397,0.00670166
16143,10389,-16654,11201,-15781,0.00819092,0.0186157,0.00335083,0.0100525
16339,10527,-16874,11352,-15992,0.00968018,0.0245728,0.00409546,0.00893555
16541,10661,-17089,11499,-16196,0.00930786,0.0182434,0.0078186,0.00893555
16750,10796,-17303,11646,-16401,0.00819092,0.0249451,0.00819092,0.00968018
16952,10930,-17518,11792,-16607,0.0052124,0.0178711,0.013031,0.00744629
17155,11065,-17732,11939,-16812,0.00372314,0.0242004,0.0122864,0.0078186
17379,11200,-17949,12087,-17020,0.00930786,0.0178711,0.013031,0.00335083
17569,11341,-18174,12241,-17235,0.00893555,0.0219666,0.0104248,0.00744629
17773,11470,-18379,12381,-17431,0.0078186,0.0163818,0.0119141,0.00819092
17975,11604,-18593,12528,-17636,0.00409546,0.0238281,0.00595703,0.0078186
18183,11742,-18812,12678,-17845,0.00297852,0.0227112,0.00968018,0.00819092
18386,11876,-19027,12825,-18051,0.00446777,0.0230835,0.0122864,0.00446777
18596,12011,-19242,12973,-18258,0.00595703,0.0230835,0.0111694,0.0104248
18797,12147,-19457,13121,-18464,0.00707397,0.0212219,0.00409546,0.00409546
19002,12281,-19672,13270,-18670,0.00446777,0.0234558,0.00968018,0.0078186
19206,12414,-19884,13416,-18873,0.00632935,0.0208496,0.0119141,0.0104248
19411,12552,-19949,13567,-19084,0.0145203,0.0212219,0.0115417,0.00856323
19615,12687,-19949,13714,-19290,0.00930786,0.0219666,0.0115417,0.00893555
19821,12822,-19949,13862,-19498,0.0078186,0.0242004,0.0126587,0.0078186
20026,12957,-19949,14010,-19705,0.00819092,0.0208496,0.0078186,0.0026062
20228,13091,-19949,14156,-19910,0.00930786,0.0242004,0.0115417,-0.637775
20435,13229,-19949,14308,-19475,0.00893555,0.0204773,0.0107971,-0.637775
20640,13363,-19949,14455,-19075,0.00893555,0.0227112,0.00968018,-0.637775
20844,13497,-19949,14602,-18653,0.00856323,0.0197327,0.0104248,-0.637775
21048,13634,-19949,14752,-18295,0.00297852,0.0234558,0.0115417,-0.637775
21253,13770,-19949,14901,-17888,0.00111694,0.0245728,0.0107971,-0.637775
21459,13904,-19949,15048,-17476,0.0104248,0.0219666,0.0134033,-0.637775
21661,14041,-19949,15197,-17037,0.00409546,0.0227112,0.0119141,-0.637775
21869,14175,-19949,15344,-16653,0.00372314,0.0219666,0.00632935,-0.637775
22071,14314,-19949,15495,-16297,0.00632935,0.0234558,0.0126587,-0.637775
22276,14449,-19949,15642,-15904,0.00372314,0.0223389,0.0052124,-0.637775
22480,14584,-19949,15790,-15493,0.00446777,0.0249451,0.00484009,-0.637775
22698,14719,-19949,15938,-15065,0.00372314,0.0212219,0.0126587,-0.637775
22893,14858,-19949,16090,-14656,0.00335083,0.0208496,0.0104248,-0.637775
23097,14990,-19949,16234,-14266,0.00558472,0.0227112,0.0122864,-0.637775
23300,15127,-19949,16385,-13870,0.00186157,0.0219666,0.0104248,-0.637775
23504,15265,-19949,16536,-13477,0.00595703,0.0234558,0.0107971,-0.637775
23712,15401,-19949,16685,-13090,0.00595703,0.0212219,0.013031,-0.637775
23916,15537,-19949,16832,-12700,0.00893555,0.0215942,0.0115417,-0.637775
25091,15672,-19949,16980,-12310,0.00893555,0.0215942,0.0115417,-0.637775
27202,15672,-19949,16980,134205418,0.00893555,0.0215942,0.0115417,-0.637775
29315,15672,-19949,16980,134205418,0.00893555,0.0215942,0.0115417,-0.637775
31426,15672,-19949,16980,134205418,0.00893555,0.0215942,0.0115417,-0.637775
33539,15672,-19949,16980,134205418,0.00893555,0.0215942,0.0115417,-0.637775
35651,15672,-19949,16980,134205418,0.00893555,0.0215942,0.0115417,-0.637775
37763,15672,-19949,16980,134205418,0.00893555,0.0215942,0.0115417,-0.637775
39875,15672,-19949,16980,134205418,0.00893555,0.0215942,0.0115417,-0.637775
41986,15672,-19949,16980,134205418,0.00893555,0.0215942,0.0115417,-0.637775
44099,15672,-19949,16980,134205418,0.00893555,0.0215942,0.0115417,-0.637775
46211,15672,-19949,16980,134205418,0.00893555,0.0215942,0.0115417,-0.637775
48323,15672,-19949,16980,134205418,0.00893555,0.0215942,0.0115417,-0.637775
49507,15672,-19949,16980,134205418,0.00893555,0.0215942,0.0115417,-0.637775
